Sample rate: 200 Hz
-2.176896197698580115e-01
-2.133173051566807921e-01
-2.111311478500921823e-01
-2.231550130363295636e-01
-2.111311478500921823e-01
-2.002003613171491059e-01
-2.034795972770320205e-01
-2.122242265033864872e-01
-2.067588332369149351e-01
-2.056657545836206302e-01
-2.034795972770320205e-01
-1.991072826638548010e-01
-1.859903388243231148e-01
-1.881764961309117246e-01
-1.827111028644402002e-01
-1.827111028644402002e-01
-1.772457095979686481e-01
-1.794318669045572578e-01
-1.750595522913800384e-01
-1.739664736380857335e-01
-1.619426084518483522e-01
-1.630356871051426570e-01
-1.674080017183199043e-01
-1.575702938386711327e-01
-1.564772151853768278e-01
-1.564772151853768278e-01
-1.597564511452597424e-01
-1.488256646123166660e-01
-1.422671926925508368e-01
-1.433602713458451416e-01
-1.477325859590223611e-01
-1.488256646123166660e-01
-1.357087207727849798e-01
-1.466395073057280563e-01
-1.400810353859622270e-01
-1.422671926925508368e-01
-1.488256646123166660e-01
-1.575702938386711327e-01
-1.564772151853768278e-01
-1.521049005721996084e-01
-1.499187432656109709e-01
-1.499187432656109709e-01
-1.466395073057280563e-01
-1.542910578787882181e-01
-1.531979792254939132e-01
-1.499187432656109709e-01
-1.510118219189052757e-01
-1.433602713458451416e-01
-1.433602713458451416e-01
-1.422671926925508368e-01
-1.357087207727849798e-01
-1.280571701997248457e-01
-1.378948780793736173e-01
-1.378948780793736173e-01
-1.346156421194906749e-01
-1.269640915464305408e-01
-1.378948780793736173e-01
-1.280571701997248457e-01
-9.963712521407286360e-02
-7.558939484159810096e-02
-5.810013638888919529e-02
-4.498319254935750910e-02
-2.530777679005997982e-02
-6.725439684056762346e-03
1.841536934171229822e-02
4.792849298065858521e-02
4.464925702077567060e-02
2.606691991477244966e-02
9.670740115357843655e-03
-6.725439684056762346e-03
-3.842472062959166601e-02
-5.044858581582904039e-02
-7.121708022842088148e-02
-9.417173194760132537e-02
-1.149402263601931595e-01
-1.280571701997248457e-01
-1.499187432656109709e-01
-1.750595522913800384e-01
-1.695941590249085140e-01
-1.750595522913800384e-01
-1.827111028644402002e-01
-1.838041815177345051e-01
-1.859903388243231148e-01
-1.706872376782028189e-01
-8.433402406795255379e-02
7.744161661960487220e-02
2.162626055879818820e-01
4.665776171923781690e-01
8.262004941262052204e-01
8.546205391118572026e-01
4.753222464187326080e-01
6.869698739325041936e-02
-1.881764961309117246e-01
-4.199091706293048287e-01
-5.751263393970964533e-01
-4.953315977066120035e-01
-3.499521368184691505e-01
-2.220619343830352310e-01
-1.674080017183199043e-01
-1.389879567326679222e-01
-1.346156421194906749e-01
-1.335225634661963701e-01
-1.225917769332533075e-01
-1.105679117470159262e-01
-1.007302038673671685e-01
-8.870633868112978715e-02
-8.870633868112978715e-02
-8.214786676136394405e-02
-6.028629369547780503e-02
-6.465860830865503839e-02
-6.465860830865503839e-02
-5.044858581582904039e-02
-3.842472062959166601e-02
-4.279703524276889243e-02
-2.968009140323720971e-02
-1.437699025711691204e-02
-2.353125070879534195e-03
-1.260046417585227157e-03
1.841536934171229822e-02
2.715999856806675453e-02
2.715999856806675453e-02
4.137002106089274905e-02
5.995235816689596653e-02
6.323159412677888114e-02
7.744161661960487220e-02
1.080478189118454779e-01
1.178855267914942356e-01
1.441194144705575941e-01
1.583294369633835852e-01
1.976802684819786438e-01
2.337518640406907877e-01
2.698234595994029039e-01
3.102673697712922674e-01
3.408735720635328592e-01
3.780382462755392803e-01
4.064582912611912624e-01
4.381575722067261869e-01
4.490883587396692911e-01
4.840668756450871024e-01
5.059284487109731998e-01
5.037422914043846456e-01
4.906253475648529316e-01
4.589260666193180072e-01
4.086444485677799277e-01
3.550835945563588503e-01
3.080812124647036576e-01
2.414034146137509218e-01
1.845633246424469576e-01
1.353747852442031552e-01
9.711703237890240148e-02
5.120772894054150676e-02
1.732229068841799335e-02
-1.109775429723399050e-02
-3.405240601641443959e-02
-5.263474312241765707e-02
-6.903092292183225787e-02
-8.324094541465824892e-02
-9.854404656077854485e-02
-9.198557464101271564e-02
-9.854404656077854485e-02
-9.745096790748423998e-02
-9.745096790748423998e-02
-9.635788925418993511e-02
-1.007302038673671685e-01
-1.051025184805443879e-01
-1.040094398272500831e-01
-1.007302038673671685e-01
-1.040094398272500831e-01
-8.979941733442409202e-02
-8.652018137454117741e-02
-9.198557464101271564e-02
-8.870633868112978715e-02
-7.449631618830379609e-02
-6.684476561524364813e-02
-7.777555214818672458e-02
-6.793784426853795300e-02
-6.793784426853795300e-02
-7.231015888171518635e-02
-7.886863080148102945e-02
-7.886863080148102945e-02
-8.105478810806963919e-02
-7.558939484159810096e-02
-7.777555214818672458e-02
-7.449631618830379609e-02
-6.793784426853795300e-02
-6.356552965536073352e-02
-7.340323753500949122e-02
-7.340323753500949122e-02
-6.575168696194934326e-02
-5.919321504218350016e-02
-6.575168696194934326e-02
-7.012400157512656274e-02
-5.919321504218350016e-02
-7.121708022842088148e-02
-6.137937234877210990e-02
-5.919321504218350016e-02
-6.137937234877210990e-02
-7.558939484159810096e-02
-6.247245100206642171e-02
-6.684476561524364813e-02
-6.356552965536073352e-02
-5.154166446912335220e-02
-4.716934985594611884e-02
-5.810013638888919529e-02
-5.591397908230057862e-02
-5.700705773559488349e-02
-5.700705773559488349e-02
-6.356552965536073352e-02
-6.465860830865503839e-02
-6.903092292183225787e-02
-7.012400157512656274e-02
-6.793784426853795300e-02
-7.558939484159810096e-02
-7.449631618830379609e-02
-7.012400157512656274e-02
-7.668247349489240583e-02
-7.558939484159810096e-02
-7.340323753500949122e-02
-7.340323753500949122e-02
-7.231015888171518635e-02
-8.214786676136394405e-02
-7.558939484159810096e-02
-7.012400157512656274e-02
-4.826242850924043065e-02
-2.749393409664859650e-02
7.484582808769228712e-03
1.732229068841799335e-02
9.670740115357843655e-03
3.371847048783259415e-02
6.979006604654472423e-02
7.962777392619349581e-02
7.416238065972195759e-02
6.869698739325041936e-02
6.323159412677888114e-02
5.339388624713012343e-02
2.715999856806675453e-02
1.841536934171229822e-02
-6.725439684056762346e-03
-1.765622621699983186e-02
-3.514548466970874446e-02
-6.137937234877210990e-02
-7.886863080148102945e-02
-9.635788925418993511e-02
-9.963712521407286360e-02
-9.417173194760132537e-02
-9.417173194760132537e-02
-1.029163611739557782e-01
-1.138471477068988547e-01
-8.652018137454117741e-02
5.298425502180614637e-03
1.463055717771462316e-01
2.785680888257573429e-01
5.474654375361568404e-01
8.895990560172749584e-01
8.819475054442148521e-01
5.103007633241504193e-01
1.255370773645543836e-01
-1.236848555865476124e-01
-3.499521368184691505e-01
-4.953315977066120035e-01
-4.275607212023649906e-01
-2.876466535806936897e-01
-1.597564511452597424e-01
-9.417173194760132537e-02
-8.542710272124687254e-02
-7.996170945477533432e-02
-6.684476561524364813e-02
-5.700705773559488349e-02
-4.279703524276889243e-02
-4.607627120265181397e-02
-5.044858581582904039e-02
-4.607627120265181397e-02
-3.186624870982582292e-02
-4.389011389606320424e-02
-3.733164197629736114e-02
-2.858701274994290137e-02
-2.421469813676567495e-02
-1.984238352358844507e-02
-6.725439684056762346e-03
2.019189542297693957e-03
-6.725439684056762346e-03
9.261108890033869188e-04
9.670740115357843655e-03
1.404305472853507181e-02
2.715999856806675453e-02
4.464925702077567060e-02
6.432467278007319988e-02
8.181393123278210555e-02
9.602395372560809661e-02
1.222578414046714690e-01
1.397470998573803747e-01
1.594225156166779178e-01
1.856564032957412624e-01
2.118902909748046348e-01
2.370311000005737023e-01
2.709165382526972365e-01
3.080812124647036576e-01
3.507112799431816308e-01
3.867828755018937748e-01
4.108306058743685374e-01
4.490883587396692911e-01
4.862530329516757122e-01
5.168592352439163040e-01
5.365346510032138472e-01
5.474654375361568404e-01
5.551169881092170577e-01
5.409069656163910667e-01
4.928115048714415414e-01
4.490883587396692911e-01
3.966205833815425463e-01
3.375943361036499724e-01
2.851265607455232276e-01
2.446826505736338642e-01
1.736325381095039089e-01
1.233509200579657739e-01
8.946548180584225352e-02
5.885927951360166166e-02
3.043923452794967607e-02
-4.539282377468148270e-03
-2.421469813676567495e-02
-4.170395658947458756e-02
-4.716934985594611884e-02
-6.903092292183225787e-02
-8.324094541465824892e-02
-8.433402406795255379e-02
-8.324094541465824892e-02
-9.417173194760132537e-02
-9.417173194760132537e-02
-9.963712521407286360e-02
-1.018232825206614733e-01
-9.745096790748423998e-02
-1.007302038673671685e-01
-9.198557464101271564e-02
-1.007302038673671685e-01
-7.996170945477533432e-02
-6.028629369547780503e-02
-5.591397908230057862e-02
-6.903092292183225787e-02
-7.996170945477533432e-02
-6.903092292183225787e-02
-7.558939484159810096e-02
-7.996170945477533432e-02
-7.996170945477533432e-02
-7.996170945477533432e-02
-7.886863080148102945e-02
-8.542710272124687254e-02
-7.886863080148102945e-02
-7.886863080148102945e-02
-7.777555214818672458e-02
-8.870633868112978715e-02
-8.214786676136394405e-02
-8.324094541465824892e-02
-7.449631618830379609e-02
-8.652018137454117741e-02
-9.089249598771839689e-02
-8.870633868112978715e-02
-8.870633868112978715e-02
-9.417173194760132537e-02
-1.040094398272500831e-01
-1.061955971338387067e-01
-1.138471477068988547e-01
-1.214986982799590026e-01
-1.302433275063134555e-01
-1.247779342398419172e-01
-1.269640915464305408e-01
-1.280571701997248457e-01
-1.247779342398419172e-01
-1.357087207727849798e-01
-1.368017994260792847e-01
-1.455464286524337514e-01
-1.499187432656109709e-01
-1.499187432656109709e-01
-1.455464286524337514e-01
-1.455464286524337514e-01
-1.608495297985540473e-01
-1.564772151853768278e-01
-1.652218444117312668e-01
-1.663149230650255994e-01
-1.641287657584369619e-01
-1.838041815177345051e-01
-1.783387882512629530e-01
-1.663149230650255994e-01
-1.368017994260792847e-01
-1.269640915464305408e-01
-1.160333050134874644e-01
-9.635788925418993511e-02
-8.324094541465824892e-02
-6.903092292183225787e-02
-3.842472062959166601e-02
-2.312161948347136661e-02
-4.061087793618028269e-02
-4.607627120265181397e-02
-5.044858581582904039e-02
-7.340323753500949122e-02
-1.051025184805443879e-01
-1.269640915464305408e-01
-1.455464286524337514e-01
-1.717803163314971238e-01
-1.892695747842060294e-01
-1.980142040105604961e-01
-2.231550130363295636e-01
-2.275273276495067831e-01
-2.450165861022156888e-01
-2.362719568758612221e-01
-2.417373501423327742e-01
-2.504819793686872131e-01
-2.570404512884530424e-01
-2.133173051566807921e-01
-6.793784426853795300e-02
1.025824256453739397e-01
2.741957742125801234e-01
6.043055275074608046e-01
8.655513256448001957e-01
5.769785611751031551e-01
1.364678638974974600e-01
-2.067588332369149351e-01
-3.925822042969471237e-01
-6.079186989959256548e-01
-6.439902945546377433e-01
-5.314031932653241475e-01
-3.718137098843553034e-01
-2.657850805148075368e-01
-2.253411703429181734e-01
-2.089449905435035726e-01
-2.002003613171491059e-01
-1.870834174776174197e-01
-1.706872376782028189e-01
-1.564772151853768278e-01
-1.389879567326679222e-01
-1.324294848129020652e-01
-1.193125409733703790e-01
-1.182194623200760741e-01
-1.160333050134874644e-01
-1.116609904003102310e-01
-1.029163611739557782e-01
-7.996170945477533432e-02
-7.886863080148102945e-02
-8.105478810806963919e-02
-6.903092292183225787e-02
-5.044858581582904039e-02
-5.044858581582904039e-02
-3.405240601641443959e-02
-1.109775429723399050e-02
-1.000467564393968389e-02
-7.818518337351068950e-03
6.391504155474922108e-03
1.076381876865215026e-02
3.262539183453828928e-02
4.792849298065858521e-02
8.618624584595933891e-02
9.493087507231379174e-02
1.178855267914942356e-01
1.517709650436177560e-01
1.911217965622128145e-01
2.282864707742192356e-01
2.654511449862256844e-01
3.015227405449378284e-01
3.441528080234158016e-01
3.835036395420108324e-01
4.195752351007229763e-01
4.469022014330806258e-01
4.775084037253212732e-01
4.939045835247358740e-01
4.960907408313244837e-01
4.764153250720269406e-01
4.447160441264920161e-01
4.042721339546026527e-01
3.539905159030645732e-01
2.960573472784662763e-01
2.392172573071623121e-01
1.725394594562095762e-01
1.211647627513771641e-01
7.416238065972195759e-02
3.809078510100982751e-02
-1.328391160382260371e-02
-3.514548466970874446e-02
-5.591397908230057862e-02
-7.777555214818672458e-02
-9.635788925418993511e-02
-1.061955971338387067e-01
-1.149402263601931595e-01
-1.291502488530191506e-01
-1.302433275063134555e-01
-1.335225634661963701e-01
-1.466395073057280563e-01
-1.455464286524337514e-01
-1.510118219189052757e-01
-1.575702938386711327e-01
-1.586633724919654376e-01
-1.630356871051426570e-01
-1.619426084518483522e-01
-1.477325859590223611e-01
-1.368017994260792847e-01
-1.455464286524337514e-01
-1.444533499991394465e-01
-1.335225634661963701e-01
-1.324294848129020652e-01
-1.378948780793736173e-01
-1.357087207727849798e-01
-1.291502488530191506e-01
-1.313364061596077603e-01
-1.378948780793736173e-01
-1.313364061596077603e-01
-1.433602713458451416e-01
-1.466395073057280563e-01
-1.433602713458451416e-01
-1.269640915464305408e-01
-1.346156421194906749e-01
-1.411741140392565319e-01
-1.313364061596077603e-01
-1.269640915464305408e-01
-1.225917769332533075e-01
-1.204056196266646978e-01
-1.225917769332533075e-01
-1.236848555865476124e-01
-1.204056196266646978e-01
-1.236848555865476124e-01
-1.138471477068988547e-01
-1.171263836667817693e-01
-1.258710128931362360e-01
-1.269640915464305408e-01
-1.269640915464305408e-01
-1.291502488530191506e-01
-1.291502488530191506e-01
-1.269640915464305408e-01
-1.193125409733703790e-01
-1.204056196266646978e-01
-1.247779342398419172e-01
-1.280571701997248457e-01
-1.324294848129020652e-01
-1.335225634661963701e-01
-1.214986982799590026e-01
-1.193125409733703790e-01
-1.171263836667817693e-01
-1.182194623200760741e-01
-1.160333050134874644e-01
-1.160333050134874644e-01
-1.247779342398419172e-01
-1.225917769332533075e-01
-1.280571701997248457e-01
-1.051025184805443879e-01
-1.061955971338387067e-01
-1.061955971338387067e-01
-1.061955971338387067e-01
-1.007302038673671685e-01
-1.051025184805443879e-01
-9.635788925418993511e-02
-9.198557464101271564e-02
-6.684476561524364813e-02
-3.514548466970874446e-02
-2.202854083017706174e-02
-1.000467564393968389e-02
7.484582808769228712e-03
2.715999856806675453e-02
3.481154914112690596e-02
7.306930200642765272e-02
7.853469527289919094e-02
6.323159412677888114e-02
4.464925702077567060e-02
3.699770644771551570e-02
8.577661462063535316e-03
-8.911596990645375554e-03
-2.530777679005997982e-02
-4.607627120265181397e-02
-6.247245100206642171e-02
-7.121708022842088148e-02
-8.979941733442409202e-02
-1.182194623200760741e-01
-1.313364061596077603e-01
-1.269640915464305408e-01
-1.193125409733703790e-01
-1.182194623200760741e-01
-1.127540690536045359e-01
-1.127540690536045359e-01
-5.263474312241765707e-02
1.058616616052568543e-01
2.512411224933996934e-01
4.862530329516757122e-01
8.305728087393824399e-01
9.431599100286960358e-01
5.857231904014575941e-01
1.834702459891526527e-01
-9.635788925418993511e-02
-3.390213502855261019e-01
-5.007969909730835001e-01
-4.253745638957763253e-01
-2.963912828070481287e-01
-1.564772151853768278e-01
-9.526481060089563024e-02
-7.558939484159810096e-02
-7.012400157512656274e-02
-6.465860830865503839e-02
-5.700705773559488349e-02
-5.154166446912335220e-02
-4.498319254935750910e-02
-3.733164197629736114e-02
-2.640085544335428816e-02
-2.312161948347136661e-02
-1.656314756370552699e-02
-1.260046417585227157e-03
9.670740115357843655e-03
8.577661462063535316e-03
9.670740115357843655e-03
2.606691991477244966e-02
2.169460530159521977e-02
3.590462779442121083e-02
4.792849298065858521e-02
4.902157163395289702e-02
6.651083008666180962e-02
8.509316719266503404e-02
9.383779641901948687e-02
1.025824256453739397e-01
1.167924481381999308e-01
1.178855267914942356e-01
1.408401785106746795e-01
1.670740661897380519e-01
1.922148752155071194e-01
1.965871898286843389e-01
2.217279988544534064e-01
2.435895719203395315e-01
2.763819315191687331e-01
3.015227405449378284e-01
3.310358641838840876e-01
3.769451676222450032e-01
4.075513699144855950e-01
4.512745160462579008e-01
4.796945610319098829e-01
5.113938419774447519e-01
5.376277296565081798e-01
5.540239094559227251e-01
5.474654375361568404e-01
5.277900217768594082e-01
4.993699767912073706e-01
4.622053025792009495e-01
4.031790553013083755e-01
3.496182012898872982e-01
2.993365832383492187e-01
2.359380213472793975e-01
1.736325381095039089e-01
1.211647627513771641e-01
7.306930200642765272e-02
4.137002106089274905e-02
8.577661462063535316e-03
-3.446203724173841233e-03
-2.421469813676567495e-02
-4.826242850924043065e-02
-5.591397908230057862e-02
-7.231015888171518635e-02
-7.668247349489240583e-02
-8.433402406795255379e-02
-7.777555214818672458e-02
-8.542710272124687254e-02
-9.089249598771839689e-02
-9.526481060089563024e-02
-8.652018137454117741e-02
-8.542710272124687254e-02
-8.761326002783548228e-02
-8.324094541465824892e-02
-7.668247349489240583e-02
-7.558939484159810096e-02
-7.777555214818672458e-02
-7.340323753500949122e-02
-6.575168696194934326e-02
-6.903092292183225787e-02
-7.996170945477533432e-02
-7.340323753500949122e-02
-7.012400157512656274e-02
-7.558939484159810096e-02
-7.668247349489240583e-02
-7.121708022842088148e-02
-7.558939484159810096e-02
-7.121708022842088148e-02
-7.012400157512656274e-02
-6.465860830865503839e-02
-6.684476561524364813e-02
-6.903092292183225787e-02
-6.575168696194934326e-02
-5.810013638888919529e-02
-5.810013638888919529e-02
-5.810013638888919529e-02
-6.137937234877210990e-02
-6.028629369547780503e-02
-5.700705773559488349e-02
-6.465860830865503839e-02
-7.231015888171518635e-02
-7.996170945477533432e-02
-8.105478810806963919e-02
-8.542710272124687254e-02
-8.652018137454117741e-02
-7.886863080148102945e-02
-8.761326002783548228e-02
-9.745096790748423998e-02
-8.324094541465824892e-02
-8.542710272124687254e-02
-1.061955971338387067e-01
-1.007302038673671685e-01
-9.089249598771839689e-02
-8.870633868112978715e-02
-9.198557464101271564e-02
-8.761326002783548228e-02
-9.417173194760132537e-02
-9.745096790748423998e-02
-9.307865329430702050e-02
-9.635788925418993511e-02
-9.745096790748423998e-02
-9.089249598771839689e-02
-9.526481060089563024e-02
-9.854404656077854485e-02
-1.007302038673671685e-01
-9.307865329430702050e-02
-1.072886757871330116e-01
-1.029163611739557782e-01
-8.870633868112978715e-02
-7.558939484159810096e-02
-6.575168696194934326e-02
-4.061087793618028269e-02
-1.984238352358844507e-02
-1.547006891041121865e-02
5.298425502180614637e-03
3.481154914112690596e-02
6.760390873995611449e-02
6.323159412677888114e-02
5.448696490042442830e-02
4.683541432736428034e-02
5.230080759383581857e-02
3.481154914112690596e-02
4.205346848886308032e-03
-1.984238352358844507e-02
-1.984238352358844507e-02
-4.389011389606320424e-02
-4.389011389606320424e-02
-7.558939484159810096e-02
-9.963712521407286360e-02
-1.083817544404273164e-01
-1.061955971338387067e-01
-9.635788925418993511e-02
-1.007302038673671685e-01
-1.040094398272500831e-01
-8.979941733442409202e-02
-1.328391160382260371e-02
1.310024706310259357e-01
2.807542461323460081e-01
4.829737969917927698e-01
8.404105166190312115e-01
1.000000000000000000e+00
6.545871455589989951e-01
2.326587853873964828e-01
-5.044858581582904039e-02
-2.362719568758612221e-01
-4.373984290820137066e-01
-4.428638223484852587e-01
-3.237182491394057782e-01
-1.695941590249085140e-01
-8.979941733442409202e-02
-6.684476561524364813e-02
-5.591397908230057862e-02
-4.061087793618028269e-02
-3.733164197629736114e-02
-3.623856332300304933e-02
-1.765622621699983186e-02
-8.911596990645375554e-03
-4.539282377468148270e-03
7.484582808769228712e-03
9.670740115357843655e-03
1.622921203512368502e-02
1.950844799500660656e-02
2.060152664830091490e-02
2.060152664830091490e-02
3.481154914112690596e-02
3.262539183453828928e-02
4.464925702077567060e-02
4.574233567406997547e-02
5.011465028724720189e-02
5.885927951360166166e-02
5.120772894054150676e-02
5.448696490042442830e-02
7.634853796631056733e-02
9.274471776572518200e-02
1.014893469920796348e-01
1.167924481381999308e-01
1.320955492843202406e-01
1.419332571639689844e-01
1.627017515765608324e-01
1.900287179089185097e-01
2.162626055879818820e-01
2.490549651868110836e-01
2.752888528658744560e-01
2.949642686251719992e-01
3.299427855305898105e-01
3.671074597425962316e-01
3.900621114617766616e-01
4.239475497139001958e-01
4.490883587396692911e-01
4.731360891121439982e-01
4.884391902582643219e-01
4.906253475648529316e-01
4.742291677654383308e-01
4.239475497139001958e-01
3.911551901150709942e-01
3.375943361036499724e-01
2.763819315191687331e-01
2.097041336682160251e-01
1.594225156166779178e-01
1.113270548717283925e-01
5.776620086030734985e-02
1.841536934171229822e-02
-2.093546217688275340e-02
-5.263474312241765707e-02
-9.089249598771839689e-02
-1.127540690536045359e-01
-1.258710128931362360e-01
-1.466395073057280563e-01
-1.608495297985540473e-01
-1.641287657584369619e-01
-1.794318669045572578e-01
-1.827111028644402002e-01
-1.805249455578515905e-01
-1.903626534375003343e-01
-1.925488107440889440e-01
-1.991072826638548010e-01
-2.045726759303263254e-01
-2.089449905435035726e-01
-2.100380691967978775e-01
-1.947349680506775815e-01
-1.969211253572661913e-01
-1.761526309446743432e-01
-1.674080017183199043e-01
-1.706872376782028189e-01
-1.739664736380857335e-01
-1.685010803716142092e-01
-1.663149230650255994e-01
-1.794318669045572578e-01
-1.794318669045572578e-01
-1.706872376782028189e-01
-1.805249455578515905e-01
-1.838041815177345051e-01
-1.892695747842060294e-01
-1.870834174776174197e-01
-1.892695747842060294e-01
-1.980142040105604961e-01
-1.991072826638548010e-01
-1.958280467039718864e-01
-1.783387882512629530e-01
-1.761526309446743432e-01
-1.739664736380857335e-01
-1.728733949847914286e-01
-1.641287657584369619e-01
-1.630356871051426570e-01
-1.499187432656109709e-01
-1.466395073057280563e-01
-1.586633724919654376e-01
-1.499187432656109709e-01
-1.466395073057280563e-01
-1.433602713458451416e-01
-1.542910578787882181e-01
-1.389879567326679222e-01
-1.378948780793736173e-01
-1.411741140392565319e-01
-1.466395073057280563e-01
-1.389879567326679222e-01
-1.411741140392565319e-01
-1.368017994260792847e-01
-1.280571701997248457e-01
-1.313364061596077603e-01
-1.324294848129020652e-01
-1.291502488530191506e-01
-1.247779342398419172e-01
-1.269640915464305408e-01
-1.247779342398419172e-01
-1.258710128931362360e-01
-1.291502488530191506e-01
-1.324294848129020652e-01
-1.302433275063134555e-01
-1.105679117470159262e-01
-8.105478810806963919e-02
-5.482090042900627375e-02
-2.530777679005997982e-02
-2.202854083017706174e-02
-1.437699025711691204e-02
5.298425502180614637e-03
3.809078510100982751e-02
3.699770644771551570e-02
3.918386375430413238e-02
3.590462779442121083e-02
1.185689742194645686e-02
-1.328391160382260371e-02
-2.640085544335428816e-02
-4.061087793618028269e-02
-7.449631618830379609e-02
-8.433402406795255379e-02
-9.417173194760132537e-02
-1.171263836667817693e-01
-1.389879567326679222e-01
-1.542910578787882181e-01
-1.652218444117312668e-01
-1.652218444117312668e-01
-1.586633724919654376e-01
-1.531979792254939132e-01
-1.630356871051426570e-01
-1.214986982799590026e-01
-7.818518337351068950e-03
1.452124931238519268e-01
2.993365832383492187e-01
6.185155500002869067e-01
9.180191010029269405e-01
7.332888085961890567e-01
3.277566282240012008e-01
-5.044858581582904039e-02
-2.756227883944563084e-01
-4.920523617467290611e-01
-5.598232382509761296e-01
-4.570738448413112498e-01
-2.920189681938709092e-01
-1.838041815177345051e-01
-1.455464286524337514e-01
-1.302433275063134555e-01
-1.083817544404273164e-01
-1.094748330937216213e-01
-1.051025184805443879e-01
-9.526481060089563024e-02
-8.652018137454117741e-02
-8.105478810806963919e-02
-8.870633868112978715e-02
-7.121708022842088148e-02
-6.247245100206642171e-02
-5.810013638888919529e-02
-4.826242850924043065e-02
-4.061087793618028269e-02
-3.186624870982582292e-02
-1.874930487029414020e-02
-1.765622621699983186e-02
-1.109775429723399050e-02
5.298425502180614637e-03
1.294997607524076347e-02
1.404305472853507181e-02
2.060152664830091490e-02
3.371847048783259415e-02
4.464925702077567060e-02
5.448696490042442830e-02
7.744161661960487220e-02
9.165163911243086325e-02
9.821011103219670635e-02
1.167924481381999308e-01
1.386540212040860698e-01
1.648879088831494422e-01
1.911217965622128145e-01
2.304726280808078731e-01
2.599857517197541323e-01
2.927781113185833339e-01
3.332220214904726974e-01
3.692936170491848413e-01
4.020859766480140429e-01
4.348783362468433000e-01
4.632983812324952821e-01
4.753222464187326080e-01
4.851599542983813795e-01
4.807876396852041601e-01
4.567399093127293974e-01
4.250406283671945284e-01
3.835036395420108324e-01
3.310358641838840876e-01
2.720096169059915137e-01
2.184487628945704918e-01
1.659809875364437470e-01
1.135132121783170162e-01
6.651083008666180962e-02
3.371847048783259415e-02
-2.353125070879534195e-03
-3.405240601641443959e-02
-4.935550716253473552e-02
-5.263474312241765707e-02
-7.012400157512656274e-02
-8.105478810806963919e-02
-7.777555214818672458e-02
-8.324094541465824892e-02
-8.870633868112978715e-02
-9.307865329430702050e-02
-1.007302038673671685e-01
-9.963712521407286360e-02
-9.963712521407286360e-02
-1.105679117470159262e-01
-9.963712521407286360e-02
-9.635788925418993511e-02
-9.089249598771839689e-02
-9.198557464101271564e-02
-8.761326002783548228e-02
-8.542710272124687254e-02
-9.089249598771839689e-02
-7.996170945477533432e-02
-7.231015888171518635e-02
-7.449631618830379609e-02
-8.542710272124687254e-02
-7.668247349489240583e-02
-7.886863080148102945e-02
-8.870633868112978715e-02
-9.198557464101271564e-02
-8.652018137454117741e-02
-9.417173194760132537e-02
-8.542710272124687254e-02
-9.089249598771839689e-02
-8.324094541465824892e-02
-8.433402406795255379e-02
-8.761326002783548228e-02
-7.449631618830379609e-02
-8.214786676136394405e-02
-7.558939484159810096e-02
-7.231015888171518635e-02
-7.449631618830379609e-02
-7.121708022842088148e-02
-6.356552965536073352e-02
-6.356552965536073352e-02
-6.465860830865503839e-02
-6.684476561524364813e-02
-5.482090042900627375e-02
-6.137937234877210990e-02
-6.137937234877210990e-02
-5.700705773559488349e-02
-6.137937234877210990e-02
-5.810013638888919529e-02
-4.935550716253473552e-02
-4.498319254935750910e-02
-5.919321504218350016e-02
-5.154166446912335220e-02
-5.263474312241765707e-02
-5.482090042900627375e-02
-6.137937234877210990e-02
-5.154166446912335220e-02
-5.263474312241765707e-02
-6.028629369547780503e-02
-5.919321504218350016e-02
-6.247245100206642171e-02
-6.465860830865503839e-02
-5.700705773559488349e-02
-5.591397908230057862e-02
-6.356552965536073352e-02
-6.575168696194934326e-02
-7.121708022842088148e-02
-6.028629369547780503e-02
-5.482090042900627375e-02
-4.826242850924043065e-02
-5.372782177571196194e-02
-5.700705773559488349e-02
-6.465860830865503839e-02
-5.482090042900627375e-02
-5.044858581582904039e-02
-1.437699025711691204e-02
7.484582808769228712e-03
2.388076260818383298e-02
2.934615587465536773e-02
4.464925702077567060e-02
6.213851547348458321e-02
8.400008853937071529e-02
1.113270548717283925e-01
1.036755042986682446e-01
9.711703237890240148e-02
7.306930200642765272e-02
5.885927951360166166e-02
2.388076260818383298e-02
3.112268195592000995e-03
-1.437699025711691204e-02
-2.312161948347136661e-02
-4.170395658947458756e-02
-5.919321504218350016e-02
-8.433402406795255379e-02
-9.635788925418993511e-02
-9.745096790748423998e-02
-9.307865329430702050e-02
-9.526481060089563024e-02
-9.635788925418993511e-02
-9.635788925418993511e-02
-7.012400157512656274e-02
1.404305472853507181e-02
1.790979313759754332e-01
3.124535270778808771e-01
5.999332128942835851e-01
9.212983369628099384e-01
8.546205391118572026e-01
4.742291677654383308e-01
1.124201335250226974e-01
-1.411741140392565319e-01
-3.772791031508268556e-01
-4.767492606006087930e-01
-3.772791031508268556e-01
-2.253411703429181734e-01
-1.127540690536045359e-01
-6.793784426853795300e-02
-4.607627120265181397e-02
-3.405240601641443959e-02
-4.061087793618028269e-02
-3.295932736312012779e-02
-1.219083295052829710e-02
-1.547006891041121865e-02
-4.539282377468148270e-03
-2.353125070879534195e-03
1.076381876865215026e-02
1.732229068841799335e-02
1.841536934171229822e-02
1.622921203512368502e-02
1.841536934171229822e-02
3.043923452794967607e-02
3.699770644771551570e-02
2.825307722136106287e-02
3.262539183453828928e-02
5.448696490042442830e-02
5.011465028724720189e-02
5.120772894054150676e-02
6.979006604654472423e-02
7.962777392619349581e-02
9.274471776572518200e-02
1.102339762184340877e-01
1.277232346711429933e-01
1.528640436969120608e-01
1.627017515765608324e-01
1.933079538688014243e-01
2.129833696280989397e-01
2.315657067341021780e-01
2.534272797999883031e-01
2.851265607455232276e-01
3.080812124647036576e-01
3.496182012898872982e-01
4.009928979947197658e-01
4.414368081666091292e-01
4.862530329516757122e-01
5.103007633241504193e-01
5.452792802295682861e-01
5.605823813756886098e-01
5.758854825218088225e-01
5.693270106020430488e-01
5.474654375361568404e-01
5.190453925505048582e-01
4.786014823786155503e-01
4.250406283671945284e-01
3.682005383958905642e-01
3.102673697712922674e-01
2.490549651868110836e-01
1.834702459891526527e-01
1.386540212040860698e-01
9.055856045913655838e-02
5.885927951360166166e-02
2.278768395488952811e-02
-5.632361030762454875e-03
-2.530777679005997982e-02
-4.389011389606320424e-02
-5.372782177571196194e-02
-6.028629369547780503e-02
-6.575168696194934326e-02
-7.121708022842088148e-02
-8.324094541465824892e-02
-7.449631618830379609e-02
-7.996170945477533432e-02
-7.996170945477533432e-02
-7.777555214818672458e-02
-6.903092292183225787e-02
-6.137937234877210990e-02
-6.247245100206642171e-02
-5.919321504218350016e-02
-5.919321504218350016e-02
-5.810013638888919529e-02
-5.700705773559488349e-02
-4.935550716253473552e-02
-4.061087793618028269e-02
-4.716934985594611884e-02
-5.482090042900627375e-02
-5.700705773559488349e-02
-6.793784426853795300e-02
-7.449631618830379609e-02
-6.247245100206642171e-02
-6.793784426853795300e-02
-7.121708022842088148e-02
-7.231015888171518635e-02
-7.012400157512656274e-02
-6.793784426853795300e-02
-7.012400157512656274e-02
-6.684476561524364813e-02
-6.137937234877210990e-02
-5.482090042900627375e-02
-5.372782177571196194e-02
-7.012400157512656274e-02
-7.231015888171518635e-02
-7.558939484159810096e-02
-7.231015888171518635e-02
-8.542710272124687254e-02
-7.558939484159810096e-02
-7.886863080148102945e-02
-8.433402406795255379e-02
-8.433402406795255379e-02
-7.449631618830379609e-02
-7.886863080148102945e-02
-9.307865329430702050e-02
-9.526481060089563024e-02
-9.745096790748423998e-02
-9.745096790748423998e-02
-9.854404656077854485e-02
-8.761326002783548228e-02
-9.745096790748423998e-02
-9.745096790748423998e-02
-1.007302038673671685e-01
-1.029163611739557782e-01
-1.083817544404273164e-01
-9.745096790748423998e-02
-9.854404656077854485e-02
-1.051025184805443879e-01
-9.635788925418993511e-02
-8.324094541465824892e-02
-7.777555214818672458e-02
-7.668247349489240583e-02
-7.886863080148102945e-02
-8.542710272124687254e-02
-7.777555214818672458e-02
-7.012400157512656274e-02
-6.137937234877210990e-02
-4.170395658947458756e-02
-2.312161948347136661e-02
9.670740115357843655e-03
3.262539183453828928e-02
3.262539183453828928e-02
5.120772894054150676e-02
8.072085257948780068e-02
1.047685829519625494e-01
1.036755042986682446e-01
9.602395372560809661e-02
7.853469527289919094e-02
6.541775143336750475e-02
4.902157163395289702e-02
2.934615587465536773e-02
3.112268195592000995e-03
-8.911596990645375554e-03
-2.421469813676567495e-02
-3.733164197629736114e-02
-5.810013638888919529e-02
-8.870633868112978715e-02
-1.040094398272500831e-01
-9.635788925418993511e-02
-9.854404656077854485e-02
-1.051025184805443879e-01
-1.138471477068988547e-01
-9.089249598771839689e-02
-1.874930487029414020e-02
1.244439987112600787e-01
2.643580663329313518e-01
4.993699767912073706e-01
8.699236402579774152e-01
9.333222021490472642e-01
5.616754600289828314e-01
1.583294369633835852e-01
-9.854404656077854485e-02
-2.778089457010449181e-01
-4.701907886808429637e-01
-4.395845863886023164e-01
-3.259044064459943879e-01
-1.805249455578515905e-01
-1.061955971338387067e-01
-8.214786676136394405e-02
-7.668247349489240583e-02
-6.684476561524364813e-02
-5.591397908230057862e-02
-4.935550716253473552e-02
-4.607627120265181397e-02
-3.951779928288597088e-02
-2.858701274994290137e-02
-1.437699025711691204e-02
-2.202854083017706174e-02
-2.421469813676567495e-02
-1.874930487029414020e-02
-7.818518337351068950e-03
-1.109775429723399050e-02
-1.260046417585227157e-03
2.019189542297693957e-03
9.261108890033869188e-04
8.577661462063535316e-03
1.404305472853507181e-02
1.841536934171229822e-02
2.497384126147814132e-02
3.809078510100982751e-02
4.464925702077567060e-02
5.448696490042442830e-02
6.760390873995611449e-02
8.072085257948780068e-02
9.055856045913655838e-02
1.047685829519625494e-01
1.288163133244372982e-01
1.517709650436177560e-01
1.944010325220957291e-01
2.162626055879818820e-01
2.359380213472793975e-01
2.545203584532826357e-01
3.004296618916434958e-01
3.321289428371784203e-01
3.682005383958905642e-01
4.097375272210742048e-01
4.348783362468433000e-01
4.458091227797863487e-01
4.567399093127293974e-01
4.512745160462579008e-01
4.414368081666091292e-01
4.108306058743685374e-01
3.714797743557734511e-01
3.211981563042353160e-01
2.588926730664598552e-01
1.987733471352729486e-01
1.528640436969120608e-01
1.047685829519625494e-01
4.137002106089274905e-02
1.076381876865215026e-02
-3.405240601641443959e-02
-7.012400157512656274e-02
-1.040094398272500831e-01
-1.269640915464305408e-01
-1.488256646123166660e-01
-1.641287657584369619e-01
-1.761526309446743432e-01
-1.892695747842060294e-01
-2.023865186237377156e-01
-2.078519118902092400e-01
-2.078519118902092400e-01
-2.176896197698580115e-01
-2.089449905435035726e-01
-1.980142040105604961e-01
-1.991072826638548010e-01
-1.947349680506775815e-01
-1.980142040105604961e-01
-1.903626534375003343e-01
-1.805249455578515905e-01
-1.706872376782028189e-01
-1.674080017183199043e-01
-1.663149230650255994e-01
-1.499187432656109709e-01
-1.455464286524337514e-01
-1.302433275063134555e-01
-1.346156421194906749e-01
-1.335225634661963701e-01
-1.444533499991394465e-01
-1.280571701997248457e-01
-1.368017994260792847e-01
-1.346156421194906749e-01
-1.433602713458451416e-01
-1.411741140392565319e-01
-1.444533499991394465e-01
-1.368017994260792847e-01
-1.313364061596077603e-01
-1.214986982799590026e-01
-1.247779342398419172e-01
-1.204056196266646978e-01
-1.193125409733703790e-01
-1.269640915464305408e-01
-1.269640915464305408e-01
-1.160333050134874644e-01
-1.258710128931362360e-01
-1.335225634661963701e-01
-1.280571701997248457e-01
-1.193125409733703790e-01
-1.171263836667817693e-01
-1.214986982799590026e-01
-1.204056196266646978e-01
-1.269640915464305408e-01
-1.214986982799590026e-01
-1.258710128931362360e-01
-1.105679117470159262e-01
-1.083817544404273164e-01
-1.105679117470159262e-01
-1.204056196266646978e-01
-1.258710128931362360e-01
-1.193125409733703790e-01
-1.236848555865476124e-01
-1.182194623200760741e-01
-1.313364061596077603e-01
-1.269640915464305408e-01
-1.313364061596077603e-01
-1.302433275063134555e-01
-1.236848555865476124e-01
-1.193125409733703790e-01
-1.378948780793736173e-01
-1.313364061596077603e-01
-1.302433275063134555e-01
-1.182194623200760741e-01
-1.018232825206614733e-01
-7.886863080148102945e-02
-4.935550716253473552e-02
-3.951779928288597088e-02
-2.968009140323720971e-02
-1.437699025711691204e-02
3.112268195592000995e-03
3.153231318124398441e-02
4.355617836748135879e-02
3.262539183453828928e-02
9.670740115357843655e-03
-1.669677642909201461e-04
-1.765622621699983186e-02
-4.170395658947458756e-02
-5.810013638888919529e-02
-7.449631618830379609e-02
-9.417173194760132537e-02
-1.051025184805443879e-01
-1.182194623200760741e-01
-1.444533499991394465e-01
-1.575702938386711327e-01
-1.564772151853768278e-01
-1.531979792254939132e-01
-1.542910578787882181e-01
-1.477325859590223611e-01
-1.510118219189052757e-01
-1.061955971338387067e-01
2.715999856806675453e-02
1.856564032957412624e-01
3.736659316623620608e-01
7.103341568770086267e-01
9.355083594556359294e-01
6.469355949859388888e-01
2.195418415478647967e-01
-1.094748330937216213e-01
-3.259044064459943879e-01
-5.324962719186184801e-01
-5.292170359587354822e-01
-3.991406762167130085e-01
-2.362719568758612221e-01
-1.531979792254939132e-01
-1.225917769332533075e-01
-1.007302038673671685e-01
-9.963712521407286360e-02
-8.433402406795255379e-02
-7.340323753500949122e-02
-7.121708022842088148e-02
-5.263474312241765707e-02
-4.498319254935750910e-02
-4.826242850924043065e-02
-3.623856332300304933e-02
-2.749393409664859650e-02
-7.818518337351068950e-03
-1.000467564393968389e-02
5.298425502180614637e-03
1.185689742194645686e-02
1.950844799500660656e-02
2.060152664830091490e-02
3.590462779442121083e-02
4.246309971418705392e-02
4.683541432736428034e-02
5.995235816689596653e-02
7.306930200642765272e-02
7.197622335313334785e-02
9.602395372560809661e-02
1.200716840980828454e-01
1.222578414046714690e-01
1.506778863903234511e-01
1.769117740693868235e-01
1.954941111753900340e-01
2.129833696280989397e-01
2.468688078802224739e-01
2.763819315191687331e-01
3.037088978515264381e-01
3.365012574503556397e-01
3.638282237827132892e-01
3.998998193414254332e-01
4.381575722067261869e-01
4.818807183384984927e-01
4.949976621780301511e-01
5.321623363900366277e-01
5.452792802295682861e-01
5.529308308026283925e-01
5.321623363900366277e-01
5.135799992840334172e-01
4.818807183384984927e-01
4.228544710606059187e-01
3.780382462755392803e-01
3.332220214904726974e-01
2.698234595994029039e-01
2.129833696280989397e-01
1.605155942699722227e-01
1.200716840980828454e-01
7.744161661960487220e-02
3.481154914112690596e-02
2.060152664830091490e-02
2.019189542297693957e-03
-2.312161948347136661e-02
-2.640085544335428816e-02
-3.623856332300304933e-02
-4.170395658947458756e-02
-4.170395658947458756e-02
-5.263474312241765707e-02
-5.263474312241765707e-02
-4.716934985594611884e-02
-4.826242850924043065e-02
-5.482090042900627375e-02
-5.263474312241765707e-02
-5.591397908230057862e-02
-5.482090042900627375e-02
-4.170395658947458756e-02
-4.170395658947458756e-02
-4.389011389606320424e-02
-4.716934985594611884e-02
-3.842472062959166601e-02
-2.968009140323720971e-02
-3.186624870982582292e-02
-4.607627120265181397e-02
-4.716934985594611884e-02
-4.607627120265181397e-02
-5.154166446912335220e-02
-6.028629369547780503e-02
-5.482090042900627375e-02
-6.028629369547780503e-02
-5.919321504218350016e-02
-5.154166446912335220e-02
-5.263474312241765707e-02
-5.263474312241765707e-02
-4.826242850924043065e-02
-5.154166446912335220e-02
-5.372782177571196194e-02
-5.044858581582904039e-02
-4.389011389606320424e-02
-4.716934985594611884e-02
-3.842472062959166601e-02
-3.951779928288597088e-02
-4.935550716253473552e-02
-5.044858581582904039e-02
-3.951779928288597088e-02
-4.826242850924043065e-02
-5.263474312241765707e-02
-4.389011389606320424e-02
-3.951779928288597088e-02
-3.842472062959166601e-02
-4.498319254935750910e-02
-4.498319254935750910e-02
-4.170395658947458756e-02
-4.170395658947458756e-02
-4.061087793618028269e-02
-3.951779928288597088e-02
-4.170395658947458756e-02
-4.170395658947458756e-02
-4.279703524276889243e-02
-4.826242850924043065e-02
-5.372782177571196194e-02
-5.263474312241765707e-02
-6.028629369547780503e-02
-6.028629369547780503e-02
-4.498319254935750910e-02
-5.810013638888919529e-02
-5.810013638888919529e-02
-4.716934985594611884e-02
-4.935550716253473552e-02
-5.700705773559488349e-02
-5.154166446912335220e-02
-2.858701274994290137e-02
-3.446203724173841233e-03
1.513613338182937841e-02
4.027694240759843725e-02
4.246309971418705392e-02
4.574233567406997547e-02
7.197622335313334785e-02
1.069547402585511731e-01
1.146062908316113210e-01
1.036755042986682446e-01
9.711703237890240148e-02
7.525545931301626246e-02
5.667312220701304498e-02
2.934615587465536773e-02
1.185689742194645686e-02
-5.632361030762454875e-03
-1.984238352358844507e-02
-4.170395658947458756e-02
-5.919321504218350016e-02
-8.979941733442409202e-02
-9.307865329430702050e-02
-9.745096790748423998e-02
-8.870633868112978715e-02
-8.761326002783548228e-02
-8.433402406795255379e-02
-8.979941733442409202e-02
-3.186624870982582292e-02
9.274471776572518200e-02
2.293795494275135405e-01
3.933413474216596040e-01
7.300095726363061699e-01
9.890692134670568958e-01
7.245441793698346178e-01
3.528974372497702405e-01
4.027694240759843725e-02
-1.991072826638548010e-01
-4.166299346694218864e-01
-4.373984290820137066e-01
-3.291836424058773303e-01
-1.772457095979686481e-01
-8.761326002783548228e-02
-5.810013638888919529e-02
-4.935550716253473552e-02
-3.295932736312012779e-02
-3.186624870982582292e-02
-1.874930487029414020e-02
-8.911596990645375554e-03
-4.539282377468148270e-03
-1.260046417585227157e-03
1.404305472853507181e-02
1.622921203512368502e-02
2.060152664830091490e-02
3.153231318124398441e-02
3.918386375430413238e-02
5.339388624713012343e-02
5.448696490042442830e-02
5.667312220701304498e-02
7.306930200642765272e-02
7.197622335313334785e-02
6.869698739325041936e-02
8.290700988607641042e-02
8.181393123278210555e-02
9.274471776572518200e-02
1.124201335250226974e-01
1.255370773645543836e-01
1.473986504304405365e-01
1.605155942699722227e-01
1.801910100292697381e-01
1.823771673358583478e-01
2.075179763616274153e-01
2.326587853873964828e-01
2.567065157598712455e-01
2.807542461323460081e-01
3.179189203443524292e-01
3.518043585964759634e-01
3.867828755018937748e-01
4.326921789402546348e-01
4.687637744989667787e-01
4.971838194846187609e-01
5.299761790834479624e-01
5.540239094559227251e-01
5.704200892553373814e-01
5.671408532954543835e-01
5.583962240690999446e-01
5.420000442696853993e-01
5.026492127510903130e-01
4.490883587396692911e-01
3.922482687683652713e-01
3.277566282240012008e-01
2.731026955592858463e-01
2.228210775077477113e-01
1.692602234963266616e-01
1.277232346711429933e-01
9.493087507231379174e-02
6.651083008666180962e-02
3.371847048783259415e-02
1.622921203512368502e-02
-1.669677642909201461e-04
-1.874930487029414020e-02
-2.858701274994290137e-02
-3.951779928288597088e-02
-4.607627120265181397e-02
-5.154166446912335220e-02
-5.154166446912335220e-02
-6.137937234877210990e-02
-6.247245100206642171e-02
-5.263474312241765707e-02
-5.154166446912335220e-02
-6.903092292183225787e-02
-5.154166446912335220e-02
-4.716934985594611884e-02
-4.389011389606320424e-02
-4.826242850924043065e-02
-2.640085544335428816e-02
-2.968009140323720971e-02
-3.623856332300304933e-02
-4.061087793618028269e-02
-3.514548466970874446e-02
-3.623856332300304933e-02
-4.498319254935750910e-02
-4.170395658947458756e-02
-5.154166446912335220e-02
-4.716934985594611884e-02
-5.700705773559488349e-02
-4.716934985594611884e-02
-4.498319254935750910e-02
-4.607627120265181397e-02
-4.389011389606320424e-02
-5.700705773559488349e-02
-5.154166446912335220e-02
-5.044858581582904039e-02
-4.498319254935750910e-02
-5.044858581582904039e-02
-5.154166446912335220e-02
-5.700705773559488349e-02
-5.810013638888919529e-02
-5.154166446912335220e-02
-4.935550716253473552e-02
-6.465860830865503839e-02
-6.465860830865503839e-02
-5.919321504218350016e-02
-6.575168696194934326e-02
-6.793784426853795300e-02
-6.356552965536073352e-02
-6.903092292183225787e-02
-6.903092292183225787e-02
-5.810013638888919529e-02
-6.793784426853795300e-02
-8.105478810806963919e-02
-8.214786676136394405e-02
-7.777555214818672458e-02
-7.012400157512656274e-02
-6.247245100206642171e-02
-5.919321504218350016e-02
-5.044858581582904039e-02
-5.044858581582904039e-02
-4.607627120265181397e-02
-3.842472062959166601e-02
-4.061087793618028269e-02
-3.514548466970874446e-02
-1.765622621699983186e-02
9.261108890033869188e-04
5.298425502180614637e-03
3.043923452794967607e-02
5.011465028724720189e-02
5.339388624713012343e-02
8.072085257948780068e-02
1.014893469920796348e-01
1.135132121783170162e-01
1.200716840980828454e-01
1.222578414046714690e-01
9.930318968549102510e-02
8.618624584595933891e-02
6.104543682019027140e-02
4.027694240759843725e-02
1.076381876865215026e-02
-1.260046417585227157e-03
-7.818518337351068950e-03
-2.421469813676567495e-02
-6.793784426853795300e-02
-7.558939484159810096e-02
-7.668247349489240583e-02
-7.668247349489240583e-02
-7.012400157512656274e-02
-7.886863080148102945e-02
-8.214786676136394405e-02
-5.591397908230057862e-02
4.246309971418705392e-02
1.900287179089185097e-01
3.288497068772954779e-01
6.053986061607551372e-01
9.628353257879935789e-01
8.655513256448001957e-01
4.775084037253212732e-01
9.383779641901948687e-02
-1.214986982799590026e-01
-3.259044064459943879e-01
-4.669115527209600214e-01
-4.089783840963617245e-01
-2.799951030076335279e-01
-1.455464286524337514e-01
-1.007302038673671685e-01
-8.105478810806963919e-02
-7.340323753500949122e-02
-7.777555214818672458e-02
-6.247245100206642171e-02
-5.263474312241765707e-02
-4.389011389606320424e-02
-3.733164197629736114e-02
-3.295932736312012779e-02
-2.640085544335428816e-02
-2.312161948347136661e-02
-2.421469813676567495e-02
-1.874930487029414020e-02
-8.911596990645375554e-03
-7.818518337351068950e-03
-6.725439684056762346e-03
-2.353125070879534195e-03
-2.353125070879534195e-03
-1.669677642909201461e-04
6.391504155474922108e-03
1.185689742194645686e-02
2.497384126147814132e-02
3.043923452794967607e-02
4.683541432736428034e-02
5.558004355371874011e-02
6.869698739325041936e-02
7.525545931301626246e-02
8.181393123278210555e-02
9.821011103219670635e-02
1.266301560178486885e-01
1.627017515765608324e-01
1.900287179089185097e-01
2.228210775077477113e-01
2.556134371065769129e-01
2.938711899718776666e-01
3.310358641838840876e-01
3.703866957024791740e-01
4.031790553013083755e-01
4.392506508600205195e-01
4.720430104588497211e-01
4.884391902582643219e-01
4.960907408313244837e-01
4.949976621780301511e-01
4.851599542983813795e-01
4.545537520061407877e-01
4.141098418342514242e-01
3.692936170491848413e-01
3.080812124647036576e-01
2.610788303730484650e-01
2.173556842412761869e-01
1.583294369633835852e-01
1.080478189118454779e-01
6.979006604654472423e-02
4.355617836748135879e-02
9.261108890033869188e-04
-2.421469813676567495e-02
-3.951779928288597088e-02
-4.935550716253473552e-02
-6.247245100206642171e-02
-7.668247349489240583e-02
-8.433402406795255379e-02
-9.745096790748423998e-02
-9.963712521407286360e-02
-1.007302038673671685e-01
-1.105679117470159262e-01
-1.160333050134874644e-01
-1.105679117470159262e-01
-1.127540690536045359e-01
-1.051025184805443879e-01
-9.745096790748423998e-02
-1.072886757871330116e-01
-1.094748330937216213e-01
-1.029163611739557782e-01
-9.526481060089563024e-02
-1.007302038673671685e-01
-9.745096790748423998e-02
-9.417173194760132537e-02
-1.094748330937216213e-01
-1.138471477068988547e-01
-1.105679117470159262e-01
-1.105679117470159262e-01
-1.236848555865476124e-01
-1.214986982799590026e-01
-1.258710128931362360e-01
-1.291502488530191506e-01
-1.280571701997248457e-01
-1.302433275063134555e-01
-1.247779342398419172e-01
-1.193125409733703790e-01
-1.171263836667817693e-01
-1.127540690536045359e-01
-1.127540690536045359e-01
-1.029163611739557782e-01
-1.083817544404273164e-01
-1.061955971338387067e-01
-1.149402263601931595e-01
-1.040094398272500831e-01
-1.116609904003102310e-01
-1.171263836667817693e-01
-1.094748330937216213e-01
-1.138471477068988547e-01
-1.083817544404273164e-01
-1.029163611739557782e-01
-9.635788925418993511e-02
-1.029163611739557782e-01
-9.963712521407286360e-02
-9.417173194760132537e-02
-1.007302038673671685e-01
-1.094748330937216213e-01
-1.061955971338387067e-01
-1.061955971338387067e-01
-1.072886757871330116e-01
-1.072886757871330116e-01
-1.072886757871330116e-01
-1.007302038673671685e-01
-1.029163611739557782e-01
-9.745096790748423998e-02
-9.635788925418993511e-02
-7.668247349489240583e-02
-4.935550716253473552e-02
-4.061087793618028269e-02
-1.219083295052829710e-02
-4.539282377468148270e-03
1.076381876865215026e-02
1.622921203512368502e-02
5.339388624713012343e-02
5.776620086030734985e-02
3.809078510100982751e-02
2.606691991477244966e-02
1.841536934171229822e-02
-3.446203724173841233e-03
-4.061087793618028269e-02
-4.716934985594611884e-02
-6.356552965536073352e-02
-8.105478810806963919e-02
-8.870633868112978715e-02
-1.083817544404273164e-01
-1.433602713458451416e-01
-1.433602713458451416e-01
-1.433602713458451416e-01
-1.368017994260792847e-01
-1.389879567326679222e-01
-1.422671926925508368e-01
-1.455464286524337514e-01
-1.007302038673671685e-01
4.137002106089274905e-02
1.780048527226811284e-01
3.496182012898872982e-01
6.786348759314737578e-01
9.519045392550504747e-01
7.037756849572428530e-01
3.058950551581150479e-01
-2.093546217688275340e-02
-2.526681366752758229e-01
-4.789354179071974027e-01
-4.898662044401404514e-01
-3.685344739244723611e-01
-2.133173051566807921e-01
-1.357087207727849798e-01
-9.417173194760132537e-02
-8.542710272124687254e-02
-8.761326002783548228e-02
-7.668247349489240583e-02
-7.558939484159810096e-02
-6.356552965536073352e-02
-5.810013638888919529e-02
-5.810013638888919529e-02
-4.935550716253473552e-02
-4.389011389606320424e-02
-2.858701274994290137e-02
-2.312161948347136661e-02
-2.312161948347136661e-02
-7.818518337351068950e-03
3.112268195592000995e-03
4.205346848886308032e-03
2.388076260818383298e-02
3.043923452794967607e-02
2.934615587465536773e-02
4.355617836748135879e-02
5.339388624713012343e-02
6.323159412677888114e-02
6.541775143336750475e-02
8.509316719266503404e-02
1.069547402585511731e-01
1.124201335250226974e-01
1.244439987112600787e-01
1.528640436969120608e-01
1.714463808029152714e-01
1.867494819490355673e-01
2.261003134676306259e-01
2.588926730664598552e-01
2.796611674790516755e-01
3.179189203443524292e-01
3.550835945563588503e-01
3.813174822354222226e-01
4.173890777941343666e-01
4.556468306594351203e-01
4.786014823786155503e-01
5.048353700576788672e-01
5.212315498570935235e-01
5.223246285103878561e-01
5.059284487109731998e-01
4.818807183384984927e-01
4.512745160462579008e-01
3.944344260749539366e-01
3.507112799431816308e-01
2.993365832383492187e-01
2.293795494275135405e-01
1.801910100292697381e-01
1.353747852442031552e-01
9.711703237890240148e-02
5.667312220701304498e-02
2.934615587465536773e-02
6.391504155474922108e-03
-2.093546217688275340e-02
-3.733164197629736114e-02
-4.607627120265181397e-02
-6.028629369547780503e-02
-6.684476561524364813e-02
-7.340323753500949122e-02
-8.214786676136394405e-02
-9.417173194760132537e-02
-9.198557464101271564e-02
-9.307865329430702050e-02
-9.198557464101271564e-02
-9.307865329430702050e-02
-8.870633868112978715e-02
-8.433402406795255379e-02
-8.214786676136394405e-02
-7.231015888171518635e-02
-7.777555214818672458e-02
-7.558939484159810096e-02
-6.903092292183225787e-02
-6.903092292183225787e-02
-7.449631618830379609e-02
-7.996170945477533432e-02
-7.558939484159810096e-02
-8.433402406795255379e-02
-1.007302038673671685e-01
-8.979941733442409202e-02
-9.417173194760132537e-02
-9.417173194760132537e-02
-9.307865329430702050e-02
-9.089249598771839689e-02
-9.635788925418993511e-02
-9.635788925418993511e-02
-8.761326002783548228e-02
-8.979941733442409202e-02
-8.542710272124687254e-02
-7.449631618830379609e-02
-7.012400157512656274e-02
-6.575168696194934326e-02
-6.028629369547780503e-02
-6.247245100206642171e-02
-6.684476561524364813e-02
-6.793784426853795300e-02
-6.793784426853795300e-02
-7.668247349489240583e-02
-6.356552965536073352e-02
-5.810013638888919529e-02
-6.465860830865503839e-02
-6.028629369547780503e-02
-6.137937234877210990e-02
-6.028629369547780503e-02
-6.793784426853795300e-02
-6.903092292183225787e-02
-7.121708022842088148e-02
-6.903092292183225787e-02
-7.777555214818672458e-02
-8.105478810806963919e-02
-7.340323753500949122e-02
-7.558939484159810096e-02
-7.668247349489240583e-02
-7.449631618830379609e-02
-7.777555214818672458e-02
-7.558939484159810096e-02
-6.903092292183225787e-02
-6.903092292183225787e-02
-6.684476561524364813e-02
-6.684476561524364813e-02
-6.247245100206642171e-02
-5.154166446912335220e-02
-1.874930487029414020e-02
-2.353125070879534195e-03
1.076381876865215026e-02
1.950844799500660656e-02
3.153231318124398441e-02
4.902157163395289702e-02
6.979006604654472423e-02
1.058616616052568543e-01
9.383779641901948687e-02
7.853469527289919094e-02
7.088314469983902910e-02
5.667312220701304498e-02
3.481154914112690596e-02
1.294997607524076347e-02
-7.818518337351068950e-03
-2.530777679005997982e-02
-4.170395658947458756e-02
-5.044858581582904039e-02
-7.231015888171518635e-02
-9.635788925418993511e-02
-9.635788925418993511e-02
-9.089249598771839689e-02
-8.761326002783548228e-02
-9.089249598771839689e-02
-1.083817544404273164e-01
-9.854404656077854485e-02
-1.000467564393968389e-02
1.506778863903234511e-01
2.807542461323460081e-01
5.234177071636821887e-01
8.677374829513888610e-01
9.103675504298668342e-01
5.540239094559227251e-01
1.714463808029152714e-01
-8.105478810806963919e-02
-3.106013052998741197e-01
-4.844008111736689548e-01
-4.231884065891877156e-01
-2.963912828070481287e-01
-1.706872376782028189e-01
-1.061955971338387067e-01
-8.652018137454117741e-02
-8.433402406795255379e-02
-7.886863080148102945e-02
-6.793784426853795300e-02
-6.793784426853795300e-02
-5.919321504218350016e-02
-4.498319254935750910e-02
-4.498319254935750910e-02
-4.061087793618028269e-02
-2.968009140323720971e-02
-2.858701274994290137e-02
-2.421469813676567495e-02
-1.437699025711691204e-02
-1.765622621699983186e-02
-2.093546217688275340e-02
-1.109775429723399050e-02
-6.725439684056762346e-03
-2.353125070879534195e-03
4.205346848886308032e-03
1.841536934171229822e-02
2.825307722136106287e-02
3.153231318124398441e-02
4.464925702077567060e-02
5.667312220701304498e-02
7.306930200642765272e-02
8.290700988607641042e-02
1.135132121783170162e-01
1.375609425507917649e-01
1.495848077370291462e-01
1.769117740693868235e-01
2.162626055879818820e-01
2.457757292269281690e-01
2.796611674790516755e-01
3.168258416910580966e-01
3.518043585964759634e-01
3.824105608887165553e-01
4.119236845276628145e-01
4.425298868199034064e-01
4.818807183384984927e-01
5.048353700576788672e-01
5.245107858169764103e-01
5.288831004301536298e-01
5.059284487109731998e-01
4.895322689115585990e-01
4.458091227797863487e-01
3.856897968485994421e-01
3.354081787970613071e-01
2.818473247856402852e-01
2.173556842412761869e-01
1.725394594562095762e-01
1.233509200579657739e-01
8.181393123278210555e-02
4.792849298065858521e-02
3.043923452794967607e-02
2.019189542297693957e-03
-1.984238352358844507e-02
-3.623856332300304933e-02
-4.607627120265181397e-02
-5.154166446912335220e-02
-7.340323753500949122e-02
-7.231015888171518635e-02
-8.105478810806963919e-02
-8.761326002783548228e-02
-8.214786676136394405e-02
-8.652018137454117741e-02
-8.870633868112978715e-02
-8.433402406795255379e-02
-9.635788925418993511e-02
-9.198557464101271564e-02
-9.307865329430702050e-02
-8.652018137454117741e-02
-8.761326002783548228e-02
-8.542710272124687254e-02
-8.870633868112978715e-02
-8.652018137454117741e-02
-8.652018137454117741e-02
-8.105478810806963919e-02
-7.886863080148102945e-02
-8.542710272124687254e-02
-9.526481060089563024e-02
-8.761326002783548228e-02
-8.105478810806963919e-02
-8.652018137454117741e-02
-8.105478810806963919e-02
-9.635788925418993511e-02
-9.526481060089563024e-02
-1.029163611739557782e-01
-9.745096790748423998e-02
-1.018232825206614733e-01
-9.745096790748423998e-02
-1.029163611739557782e-01
-1.051025184805443879e-01
-1.040094398272500831e-01
-1.072886757871330116e-01
-1.193125409733703790e-01
-1.225917769332533075e-01
-1.138471477068988547e-01
-1.171263836667817693e-01
-1.193125409733703790e-01
-1.236848555865476124e-01
-1.236848555865476124e-01
-1.368017994260792847e-01
-1.346156421194906749e-01
-1.444533499991394465e-01
-1.346156421194906749e-01
-1.499187432656109709e-01
-1.400810353859622270e-01
-1.357087207727849798e-01
-1.564772151853768278e-01
-1.531979792254939132e-01
-1.531979792254939132e-01
-1.652218444117312668e-01
-1.772457095979686481e-01
-1.674080017183199043e-01
-1.706872376782028189e-01
-1.805249455578515905e-01
-1.750595522913800384e-01
-1.794318669045572578e-01
-1.783387882512629530e-01
-1.761526309446743432e-01
-1.816180242111458953e-01
-1.772457095979686481e-01
-1.521049005721996084e-01
-1.280571701997248457e-01
-1.040094398272500831e-01
-8.542710272124687254e-02
-7.012400157512656274e-02
-5.810013638888919529e-02
-3.186624870982582292e-02
2.019189542297693957e-03
-3.446203724173841233e-03
-2.202854083017706174e-02
-4.716934985594611884e-02
-4.498319254935750910e-02
-7.121708022842088148e-02
-9.963712521407286360e-02
-1.324294848129020652e-01
-1.389879567326679222e-01
-1.641287657584369619e-01
-1.816180242111458953e-01
-2.045726759303263254e-01
-2.373650355291555547e-01
-2.417373501423327742e-01
-2.482958220620986034e-01
-2.504819793686872131e-01
-2.439235074489213839e-01
-2.515750580219815458e-01
-2.450165861022156888e-01
-1.761526309446743432e-01
-2.530777679005997982e-02
1.178855267914942356e-01
3.419666507168271918e-01
7.026826063039485204e-01
8.360382020058539920e-01
4.895322689115585990e-01
6.979006604654472423e-02
-2.056657545836206302e-01
-4.067922267897731148e-01
-5.969879124629825506e-01
-5.762194180503906749e-01
-4.548876875347226401e-01
-3.138805412597570066e-01
-2.340857995692726123e-01
-1.991072826638548010e-01
-1.903626534375003343e-01
-1.958280467039718864e-01
-1.772457095979686481e-01
-1.553841365320825230e-01
-1.564772151853768278e-01
-1.466395073057280563e-01
-1.302433275063134555e-01
-1.160333050134874644e-01
-1.072886757871330116e-01
-1.018232825206614733e-01
-9.526481060089563024e-02
-1.040094398272500831e-01
-8.870633868112978715e-02
-8.433402406795255379e-02
-7.340323753500949122e-02
-7.012400157512656274e-02
-6.247245100206642171e-02
-4.716934985594611884e-02
-3.951779928288597088e-02
-3.186624870982582292e-02
-3.623856332300304933e-02
-2.530777679005997982e-02
-3.446203724173841233e-03
1.404305472853507181e-02
1.950844799500660656e-02
4.464925702077567060e-02
6.869698739325041936e-02
8.946548180584225352e-02
1.135132121783170162e-01
1.517709650436177560e-01
1.823771673358583478e-01
2.228210775077477113e-01
2.610788303730484650e-01
3.026158191982321055e-01
3.365012574503556397e-01
3.671074597425962316e-01
4.009928979947197658e-01
4.283198643270774153e-01
4.501814373929635682e-01
4.622053025792009495e-01
4.632983812324952821e-01
4.469022014330806258e-01
4.261337070204888056e-01
3.758520889689506705e-01
3.299427855305898105e-01
2.665442236395200171e-01
2.118902909748046348e-01
1.506778863903234511e-01
9.821011103219670635e-02
5.339388624713012343e-02
1.622921203512368502e-02
-3.077317005653151805e-02
-5.810013638888919529e-02
-7.777555214818672458e-02
-1.116609904003102310e-01
-1.160333050134874644e-01
-1.214986982799590026e-01
-1.368017994260792847e-01
-1.477325859590223611e-01
-1.466395073057280563e-01
-1.455464286524337514e-01
-1.575702938386711327e-01
-1.619426084518483522e-01
-1.597564511452597424e-01
-1.641287657584369619e-01
-1.685010803716142092e-01
-1.564772151853768278e-01
-1.597564511452597424e-01
-1.542910578787882181e-01
-1.608495297985540473e-01
-1.455464286524337514e-01
-1.455464286524337514e-01
-1.368017994260792847e-01
-1.335225634661963701e-01
-1.357087207727849798e-01
-1.411741140392565319e-01
-1.477325859590223611e-01
-1.542910578787882181e-01
-1.564772151853768278e-01
-1.553841365320825230e-01
-1.564772151853768278e-01
-1.674080017183199043e-01
-1.575702938386711327e-01
-1.553841365320825230e-01
-1.521049005721996084e-01
-1.575702938386711327e-01
-1.575702938386711327e-01
-1.553841365320825230e-01
-1.510118219189052757e-01
-1.455464286524337514e-01
-1.411741140392565319e-01
-1.444533499991394465e-01
-1.357087207727849798e-01
-1.477325859590223611e-01
-1.488256646123166660e-01
-1.422671926925508368e-01
-1.422671926925508368e-01
-1.477325859590223611e-01
-1.488256646123166660e-01
-1.400810353859622270e-01
-1.411741140392565319e-01
-1.433602713458451416e-01
-1.433602713458451416e-01
-1.368017994260792847e-01
-1.400810353859622270e-01
-1.422671926925508368e-01
-1.335225634661963701e-01
-1.291502488530191506e-01
-1.357087207727849798e-01
-1.225917769332533075e-01
-1.313364061596077603e-01
-1.357087207727849798e-01
-1.368017994260792847e-01
-1.204056196266646978e-01
-1.236848555865476124e-01
-1.269640915464305408e-01
-1.225917769332533075e-01
-1.204056196266646978e-01
-1.214986982799590026e-01
-1.204056196266646978e-01
-1.280571701997248457e-01
-1.302433275063134555e-01
-1.193125409733703790e-01
-1.225917769332533075e-01
-1.127540690536045359e-01
-8.870633868112978715e-02
-6.028629369547780503e-02
-3.842472062959166601e-02
-3.514548466970874446e-02
-2.202854083017706174e-02
-1.260046417585227157e-03
2.388076260818383298e-02
4.464925702077567060e-02
4.027694240759843725e-02
2.169460530159521977e-02
1.185689742194645686e-02
9.261108890033869188e-04
-2.640085544335428816e-02
-4.935550716253473552e-02
-7.012400157512656274e-02
-7.777555214818672458e-02
-9.745096790748423998e-02
-1.116609904003102310e-01
-1.236848555865476124e-01
-1.444533499991394465e-01
-1.488256646123166660e-01
-1.510118219189052757e-01
-1.411741140392565319e-01
-1.422671926925508368e-01
-1.488256646123166660e-01
-1.236848555865476124e-01
-3.623856332300304933e-02
1.156993694849056259e-01
2.490549651868110836e-01
5.256038644702707430e-01
8.600859323783287547e-01
8.546205391118572026e-01
4.786014823786155503e-01
9.821011103219670635e-02
-1.597564511452597424e-01
-4.035129908298902279e-01
-5.259377999988525954e-01
-4.341191931221308198e-01
-2.799951030076335279e-01
-1.597564511452597424e-01
-1.094748330937216213e-01
-7.886863080148102945e-02
-8.324094541465824892e-02
-8.652018137454117741e-02
-8.324094541465824892e-02
-6.028629369547780503e-02
-6.028629369547780503e-02
-5.700705773559488349e-02
-5.482090042900627375e-02
-4.498319254935750910e-02
-3.951779928288597088e-02
-3.842472062959166601e-02
-2.312161948347136661e-02
-1.984238352358844507e-02
-1.000467564393968389e-02
-3.446203724173841233e-03
-1.260046417585227157e-03
5.298425502180614637e-03
1.622921203512368502e-02
2.934615587465536773e-02
3.590462779442121083e-02
4.027694240759843725e-02
4.464925702077567060e-02
5.776620086030734985e-02
8.290700988607641042e-02
9.493087507231379174e-02
1.003962683387853300e-01
1.255370773645543836e-01
1.539571223502063657e-01
1.714463808029152714e-01
1.878425606023298999e-01
2.304726280808078731e-01
2.567065157598712455e-01
2.851265607455232276e-01
3.168258416910580966e-01
3.518043585964759634e-01
3.889690328084823845e-01
4.261337070204888056e-01
4.567399093127293974e-01
4.829737969917927698e-01
5.059284487109731998e-01
5.124869206307390845e-01
5.146730779373276388e-01
4.949976621780301511e-01
4.731360891121439982e-01
4.239475497139001958e-01
3.649213024360076218e-01
3.190119989976467063e-01
2.643580663329313518e-01
1.976802684819786438e-01
1.539571223502063657e-01
1.167924481381999308e-01
7.744161661960487220e-02
4.027694240759843725e-02
7.484582808769228712e-03
-1.656314756370552699e-02
-4.170395658947458756e-02
-4.716934985594611884e-02
-5.482090042900627375e-02
-7.121708022842088148e-02
-8.542710272124687254e-02
-8.979941733442409202e-02
-8.652018137454117741e-02
-9.854404656077854485e-02
-1.007302038673671685e-01
-1.007302038673671685e-01
-1.083817544404273164e-01
-9.635788925418993511e-02
-9.307865329430702050e-02
-9.635788925418993511e-02
-8.979941733442409202e-02
-8.324094541465824892e-02
-8.433402406795255379e-02
-8.652018137454117741e-02
-7.777555214818672458e-02
-7.449631618830379609e-02
-8.214786676136394405e-02
-7.558939484159810096e-02
-7.340323753500949122e-02
-8.761326002783548228e-02
-9.089249598771839689e-02
-8.870633868112978715e-02
-8.652018137454117741e-02
-9.307865329430702050e-02
-9.089249598771839689e-02
-8.433402406795255379e-02
-8.324094541465824892e-02
-7.340323753500949122e-02
-7.996170945477533432e-02
-8.542710272124687254e-02
-7.996170945477533432e-02
-6.903092292183225787e-02
-7.340323753500949122e-02
-7.449631618830379609e-02
-6.903092292183225787e-02
-7.121708022842088148e-02
-6.137937234877210990e-02
-6.137937234877210990e-02
-6.575168696194934326e-02
-6.903092292183225787e-02
-7.449631618830379609e-02
-7.012400157512656274e-02
-7.121708022842088148e-02
-6.684476561524364813e-02
-6.356552965536073352e-02
-5.919321504218350016e-02
-6.793784426853795300e-02
-7.231015888171518635e-02
-7.012400157512656274e-02
-8.761326002783548228e-02
-8.324094541465824892e-02
-6.903092292183225787e-02
-7.012400157512656274e-02
-6.465860830865503839e-02
-6.465860830865503839e-02
-6.575168696194934326e-02
-7.558939484159810096e-02
-6.903092292183225787e-02
-6.684476561524364813e-02
-7.340323753500949122e-02
-7.558939484159810096e-02
-7.231015888171518635e-02
-7.449631618830379609e-02
-6.465860830865503839e-02
-7.012400157512656274e-02
-7.668247349489240583e-02
-7.012400157512656274e-02
-4.826242850924043065e-02
-1.874930487029414020e-02
-5.632361030762454875e-03
1.622921203512368502e-02
2.606691991477244966e-02
3.809078510100982751e-02
5.776620086030734985e-02
9.165163911243086325e-02
1.014893469920796348e-01
8.400008853937071529e-02
8.181393123278210555e-02
7.088314469983902910e-02
4.355617836748135879e-02
1.185689742194645686e-02
-3.446203724173841233e-03
-8.911596990645375554e-03
-2.968009140323720971e-02
-4.935550716253473552e-02
-7.012400157512656274e-02
-9.526481060089563024e-02
-9.854404656077854485e-02
-1.029163611739557782e-01
-9.854404656077854485e-02
-8.761326002783548228e-02
-9.526481060089563024e-02
-1.040094398272500831e-01
-4.826242850924043065e-02
9.383779641901948687e-02
2.195418415478647967e-01
4.009928979947197658e-01
7.474988310890150478e-01
9.366014381089301510e-01
6.217947859601697935e-01
2.337518640406907877e-01
-3.733164197629736114e-02
-2.384581141824498596e-01
-4.537946088814283074e-01
-4.701907886808429637e-01
-3.597898446981179221e-01
-2.209688557297409262e-01
-1.357087207727849798e-01
-1.072886757871330116e-01
-9.635788925418993511e-02
-9.198557464101271564e-02
-7.886863080148102945e-02
-6.903092292183225787e-02
-7.231015888171518635e-02
-6.793784426853795300e-02
-6.137937234877210990e-02
-5.700705773559488349e-02
-3.733164197629736114e-02
-3.733164197629736114e-02
-2.312161948347136661e-02
-1.547006891041121865e-02
-3.446203724173841233e-03
-1.219083295052829710e-02
-1.328391160382260371e-02
3.112268195592000995e-03
2.019189542297693957e-03
1.185689742194645686e-02
3.590462779442121083e-02
5.558004355371874011e-02
5.558004355371874011e-02
6.323159412677888114e-02
7.853469527289919094e-02
9.165163911243086325e-02
9.821011103219670635e-02
1.266301560178486885e-01
1.539571223502063657e-01
1.812840886825640430e-01
1.889356392556242048e-01
2.217279988544534064e-01
2.446826505736338642e-01
2.807542461323460081e-01
3.157327630377638195e-01
3.441528080234158016e-01
3.725728530090677837e-01
4.184821564474286437e-01
4.501814373929635682e-01
4.687637744989667787e-01
4.851599542983813795e-01
5.103007633241504193e-01
5.092076846708561977e-01
5.103007633241504193e-01
4.829737969917927698e-01
4.523675946995521779e-01
4.086444485677799277e-01
3.594559091695360697e-01
3.102673697712922674e-01
2.403103359604566169e-01
1.878425606023298999e-01
1.331886279376145454e-01
7.853469527289919094e-02
4.027694240759843725e-02
1.294997607524076347e-02
-1.437699025711691204e-02
-4.716934985594611884e-02
-6.356552965536073352e-02
-7.777555214818672458e-02
-8.979941733442409202e-02
-9.198557464101271564e-02
-1.193125409733703790e-01
-1.302433275063134555e-01
-1.280571701997248457e-01
-1.258710128931362360e-01
-1.291502488530191506e-01
-1.302433275063134555e-01
-1.313364061596077603e-01
-1.411741140392565319e-01
-1.368017994260792847e-01
-1.324294848129020652e-01
-1.204056196266646978e-01
-1.225917769332533075e-01
-1.193125409733703790e-01
-1.236848555865476124e-01
-1.236848555865476124e-01
-1.204056196266646978e-01
-1.160333050134874644e-01
-1.204056196266646978e-01
-1.269640915464305408e-01
-1.324294848129020652e-01
-1.313364061596077603e-01
-1.389879567326679222e-01
-1.521049005721996084e-01
-1.433602713458451416e-01
-1.521049005721996084e-01
-1.531979792254939132e-01
-1.542910578787882181e-01
-1.488256646123166660e-01
-1.477325859590223611e-01
-1.575702938386711327e-01
-1.619426084518483522e-01
-1.706872376782028189e-01
-1.750595522913800384e-01
-1.816180242111458953e-01
-1.870834174776174197e-01
-1.936418893973832489e-01
-1.827111028644402002e-01
-1.838041815177345051e-01
-1.870834174776174197e-01
-1.914557320907946392e-01
-1.914557320907946392e-01
-1.903626534375003343e-01
-1.881764961309117246e-01
-1.881764961309117246e-01
-1.969211253572661913e-01
-2.056657545836206302e-01
-1.980142040105604961e-01
-1.980142040105604961e-01
-1.991072826638548010e-01
-2.034795972770320205e-01
-2.002003613171491059e-01
-2.034795972770320205e-01
-1.958280467039718864e-01
-1.947349680506775815e-01
-1.914557320907946392e-01
-1.881764961309117246e-01
-1.859903388243231148e-01
-1.881764961309117246e-01
-1.925488107440889440e-01
-1.838041815177345051e-01
-1.794318669045572578e-01
-1.783387882512629530e-01
-1.706872376782028189e-01
-1.466395073057280563e-01
-1.105679117470159262e-01
-9.417173194760132537e-02
-6.684476561524364813e-02
-4.389011389606320424e-02
-5.372782177571196194e-02
-3.295932736312012779e-02
1.185689742194645686e-02
2.278768395488952811e-02
6.391504155474922108e-03
7.484582808769228712e-03
-5.632361030762454875e-03
-2.749393409664859650e-02
-5.044858581582904039e-02
-6.684476561524364813e-02
-8.870633868112978715e-02
-1.018232825206614733e-01
-1.204056196266646978e-01
-1.411741140392565319e-01
-1.630356871051426570e-01
-1.827111028644402002e-01
-1.761526309446743432e-01
-1.728733949847914286e-01
-1.717803163314971238e-01
-1.706872376782028189e-01
-1.914557320907946392e-01
-1.685010803716142092e-01
-6.028629369547780503e-02
8.072085257948780068e-02
2.239141561610420161e-01
5.124869206307390845e-01
8.502482244986799831e-01
7.551503816620752652e-01
3.671074597425962316e-01
-5.632361030762454875e-03
-2.526681366752758229e-01
-4.756561819473144603e-01
-5.784055753569793401e-01
-4.833077325203746222e-01
-3.412075075921147116e-01
-2.089449905435035726e-01
-1.608495297985540473e-01
-1.510118219189052757e-01
-1.411741140392565319e-01
-1.236848555865476124e-01
-1.171263836667817693e-01
-1.127540690536045359e-01
-9.963712521407286360e-02
-9.745096790748423998e-02
-9.417173194760132537e-02
-8.433402406795255379e-02
-6.793784426853795300e-02
-6.356552965536073352e-02
-6.247245100206642171e-02
-6.575168696194934326e-02
-5.482090042900627375e-02
-4.716934985594611884e-02
-3.842472062959166601e-02
-3.951779928288597088e-02
-2.530777679005997982e-02
-1.437699025711691204e-02
-3.446203724173841233e-03
9.261108890033869188e-04
1.294997607524076347e-02
2.715999856806675453e-02
3.809078510100982751e-02
3.918386375430413238e-02
5.230080759383581857e-02
7.525545931301626246e-02
8.946548180584225352e-02
1.200716840980828454e-01
1.452124931238519268e-01
1.703533021496209665e-01
2.086110550149217202e-01
2.392172573071623121e-01
2.698234595994029039e-01
3.037088978515264381e-01
3.419666507168271918e-01
3.692936170491848413e-01
3.933413474216596040e-01
4.261337070204888056e-01
4.414368081666091292e-01
4.600191452726123398e-01
4.600191452726123398e-01
4.436229654731977390e-01
4.053652126078969853e-01
3.703866957024791740e-01
3.222912349575296487e-01
2.676373022928142942e-01
2.042387404017445007e-01
1.594225156166779178e-01
1.069547402585511731e-01
5.558004355371874011e-02
1.950844799500660656e-02
-4.539282377468148270e-03
-3.842472062959166601e-02
-6.465860830865503839e-02
-7.777555214818672458e-02
-9.198557464101271564e-02
-1.018232825206614733e-01
-1.083817544404273164e-01
-1.182194623200760741e-01
-1.225917769332533075e-01
-1.204056196266646978e-01
-1.204056196266646978e-01
-1.258710128931362360e-01
-1.247779342398419172e-01
-1.083817544404273164e-01
-1.127540690536045359e-01
-1.072886757871330116e-01
-1.051025184805443879e-01
-9.526481060089563024e-02
-1.029163611739557782e-01
-9.307865329430702050e-02
-8.870633868112978715e-02
-9.526481060089563024e-02
-9.417173194760132537e-02
-8.870633868112978715e-02
-9.417173194760132537e-02
-1.018232825206614733e-01
-1.040094398272500831e-01
-1.018232825206614733e-01
-1.007302038673671685e-01
-1.018232825206614733e-01
-1.040094398272500831e-01
-1.061955971338387067e-01
-1.040094398272500831e-01
-1.029163611739557782e-01
-9.963712521407286360e-02
-9.635788925418993511e-02
-9.745096790748423998e-02
-9.089249598771839689e-02
-9.635788925418993511e-02
-9.526481060089563024e-02
-9.854404656077854485e-02
-1.029163611739557782e-01
-1.051025184805443879e-01
-1.051025184805443879e-01
-1.007302038673671685e-01
-1.072886757871330116e-01
-9.635788925418993511e-02
-9.963712521407286360e-02
-1.061955971338387067e-01
-9.963712521407286360e-02
-1.018232825206614733e-01
-1.061955971338387067e-01
-1.018232825206614733e-01
-9.089249598771839689e-02
-8.979941733442409202e-02
-9.854404656077854485e-02
-9.089249598771839689e-02
-9.745096790748423998e-02
-9.745096790748423998e-02
-9.089249598771839689e-02
-8.324094541465824892e-02
-7.996170945477533432e-02
-8.542710272124687254e-02
-8.652018137454117741e-02
-9.307865329430702050e-02
-9.526481060089563024e-02
-8.433402406795255379e-02
-9.198557464101271564e-02
-9.854404656077854485e-02
-9.198557464101271564e-02
-8.652018137454117741e-02
-8.979941733442409202e-02
-9.198557464101271564e-02
-8.214786676136394405e-02
-7.121708022842088148e-02
-4.826242850924043065e-02
-1.547006891041121865e-02
3.112268195592000995e-03
7.484582808769228712e-03
2.606691991477244966e-02
5.339388624713012343e-02
8.946548180584225352e-02
8.946548180584225352e-02
7.853469527289919094e-02
6.432467278007319988e-02
4.246309971418705392e-02
3.153231318124398441e-02
1.622921203512368502e-02
-1.547006891041121865e-02
-3.951779928288597088e-02
-5.700705773559488349e-02
-6.793784426853795300e-02
-9.307865329430702050e-02
-1.105679117470159262e-01
-1.193125409733703790e-01
-1.127540690536045359e-01
-1.007302038673671685e-01
-1.018232825206614733e-01
-1.116609904003102310e-01
-1.105679117470159262e-01
-6.247245100206642171e-02
8.181393123278210555e-02
2.140764482813932446e-01
4.086444485677799277e-01
7.606157749285468173e-01
9.606491684814049137e-01
6.731694826650022057e-01
2.796611674790516755e-01
-1.656314756370552699e-02
-2.318996422626840026e-01
-4.384915077353080393e-01
-4.494222942682510880e-01
-3.444867435519976540e-01
-1.947349680506775815e-01
-1.204056196266646978e-01
-8.979941733442409202e-02
-8.433402406795255379e-02
-7.340323753500949122e-02
-7.231015888171518635e-02
-5.591397908230057862e-02
-4.498319254935750910e-02
-4.498319254935750910e-02
-4.389011389606320424e-02
-2.858701274994290137e-02
-2.858701274994290137e-02
-3.295932736312012779e-02
-2.421469813676567495e-02
-2.421469813676567495e-02
-2.530777679005997982e-02
-2.421469813676567495e-02
-1.656314756370552699e-02
-1.260046417585227157e-03
9.670740115357843655e-03
1.622921203512368502e-02
2.169460530159521977e-02
1.950844799500660656e-02
3.153231318124398441e-02
4.137002106089274905e-02
4.574233567406997547e-02
5.448696490042442830e-02
6.979006604654472423e-02
7.962777392619349581e-02
1.014893469920796348e-01
1.299093919777316031e-01
1.605155942699722227e-01
1.900287179089185097e-01
2.184487628945704918e-01
2.534272797999883031e-01
2.938711899718776666e-01
3.299427855305898105e-01
3.813174822354222226e-01
4.108306058743685374e-01
4.447160441264920161e-01
4.698568531522611114e-01
4.928115048714415414e-01
5.004630554445016477e-01
5.135799992840334172e-01
5.092076846708561977e-01
4.807876396852041601e-01
4.479952800863749585e-01
4.217613924073115861e-01
3.561766732096531829e-01
2.938711899718776666e-01
2.435895719203395315e-01
1.823771673358583478e-01
1.266301560178486885e-01
7.634853796631056733e-02
4.683541432736428034e-02
1.513613338182937841e-02
-7.818518337351068950e-03
-3.077317005653151805e-02
-4.716934985594611884e-02
-6.465860830865503839e-02
-8.324094541465824892e-02
-8.652018137454117741e-02
-8.324094541465824892e-02
-8.870633868112978715e-02
-9.854404656077854485e-02
-9.526481060089563024e-02
-1.029163611739557782e-01
-1.040094398272500831e-01
-1.051025184805443879e-01
-1.029163611739557782e-01
-1.061955971338387067e-01
-9.963712521407286360e-02
-1.040094398272500831e-01
-9.635788925418993511e-02
-9.526481060089563024e-02
-1.018232825206614733e-01
-9.198557464101271564e-02
-8.652018137454117741e-02
-8.979941733442409202e-02
-1.061955971338387067e-01
-1.051025184805443879e-01
-1.029163611739557782e-01
-1.083817544404273164e-01
-1.061955971338387067e-01
-1.116609904003102310e-01
-1.149402263601931595e-01
-1.116609904003102310e-01
-1.116609904003102310e-01
-1.236848555865476124e-01
-1.269640915464305408e-01
-1.346156421194906749e-01
-1.378948780793736173e-01
-1.378948780793736173e-01
-1.346156421194906749e-01
-1.400810353859622270e-01
-1.455464286524337514e-01
-1.564772151853768278e-01
-1.510118219189052757e-01
-1.553841365320825230e-01
-1.521049005721996084e-01
-1.564772151853768278e-01
-1.597564511452597424e-01
-1.663149230650255994e-01
-1.663149230650255994e-01
-1.630356871051426570e-01
-1.663149230650255994e-01
-1.772457095979686481e-01
-1.761526309446743432e-01
-1.903626534375003343e-01
-1.870834174776174197e-01
-1.859903388243231148e-01
-1.892695747842060294e-01
-1.936418893973832489e-01
-2.023865186237377156e-01
-1.969211253572661913e-01
-2.100380691967978775e-01
-2.045726759303263254e-01
-2.111311478500921823e-01
-2.165965411165637067e-01
-2.012934399704434107e-01
-1.652218444117312668e-01
-1.477325859590223611e-01
-1.335225634661963701e-01
-1.193125409733703790e-01
-1.127540690536045359e-01
-9.417173194760132537e-02
-6.356552965536073352e-02
-4.716934985594611884e-02
-6.356552965536073352e-02
-7.668247349489240583e-02
-8.105478810806963919e-02
-8.979941733442409202e-02
-1.171263836667817693e-01
-1.346156421194906749e-01
-1.510118219189052757e-01
-1.619426084518483522e-01
-1.805249455578515905e-01
-1.958280467039718864e-01
-2.176896197698580115e-01
-2.373650355291555547e-01
-2.329927209159783075e-01
-2.286204063028010880e-01
-2.373650355291555547e-01
-2.428304287956270791e-01
-2.395511928357441644e-01
-2.187826984231523164e-01
-1.357087207727849798e-01
2.934615587465536773e-02
1.627017515765608324e-01
4.184821564474286437e-01
7.846635053010214689e-01
7.595226962752524846e-01
3.802244035821279455e-01
-1.000467564393968389e-02
-2.493889007153929083e-01
-4.636323167610770790e-01
-6.101048563025142091e-01
-5.379616651850899212e-01
-4.046060694831845050e-01
-2.767158670477505855e-01
-1.991072826638548010e-01
-1.859903388243231148e-01
-1.750595522913800384e-01
-1.542910578787882181e-01
-1.466395073057280563e-01
-1.346156421194906749e-01
-1.280571701997248457e-01
-1.149402263601931595e-01
-1.061955971338387067e-01
-1.007302038673671685e-01
-9.635788925418993511e-02
-9.307865329430702050e-02
-8.652018137454117741e-02
-7.996170945477533432e-02
-7.996170945477533432e-02
-7.558939484159810096e-02
-6.465860830865503839e-02
-5.591397908230057862e-02
-4.826242850924043065e-02
-4.061087793618028269e-02
-4.170395658947458756e-02
-2.858701274994290137e-02
-2.858701274994290137e-02
-7.818518337351068950e-03
2.019189542297693957e-03
-1.260046417585227157e-03
1.950844799500660656e-02
4.683541432736428034e-02
6.651083008666180962e-02
8.400008853937071529e-02
1.058616616052568543e-01
1.255370773645543836e-01
1.583294369633835852e-01
1.867494819490355673e-01
2.326587853873964828e-01
2.731026955592858463e-01
3.124535270778808771e-01
3.397804934102385821e-01
3.747590103156563934e-01
4.031790553013083755e-01
4.315991002869603577e-01
4.272267856737831382e-01
4.228544710606059187e-01
4.108306058743685374e-01
3.867828755018937748e-01
3.397804934102385821e-01
3.004296618916434958e-01
2.435895719203395315e-01
1.790979313759754332e-01
1.288163133244372982e-01
8.400008853937071529e-02
3.590462779442121083e-02
-2.093546217688275340e-02
-3.951779928288597088e-02
-7.231015888171518635e-02
-8.870633868112978715e-02
-1.149402263601931595e-01
-1.269640915464305408e-01
-1.324294848129020652e-01
-1.400810353859622270e-01
-1.488256646123166660e-01
-1.630356871051426570e-01
-1.619426084518483522e-01
-1.619426084518483522e-01
-1.597564511452597424e-01
-1.608495297985540473e-01
-1.674080017183199043e-01
-1.630356871051426570e-01
-1.630356871051426570e-01
-1.597564511452597424e-01
-1.455464286524337514e-01
-1.564772151853768278e-01
-1.455464286524337514e-01
-1.466395073057280563e-01
-1.346156421194906749e-01
-1.378948780793736173e-01
-1.302433275063134555e-01
-1.258710128931362360e-01
-1.313364061596077603e-01
-1.400810353859622270e-01
-1.389879567326679222e-01
-1.378948780793736173e-01
-1.455464286524337514e-01
-1.411741140392565319e-01
-1.400810353859622270e-01
-1.422671926925508368e-01
-1.444533499991394465e-01
-1.280571701997248457e-01
-1.313364061596077603e-01
-1.247779342398419172e-01
-1.313364061596077603e-01
-1.225917769332533075e-01
-1.302433275063134555e-01
-1.171263836667817693e-01
-1.116609904003102310e-01
-1.149402263601931595e-01
-1.116609904003102310e-01
-1.051025184805443879e-01
-1.193125409733703790e-01
-1.204056196266646978e-01
-1.204056196266646978e-01
-1.094748330937216213e-01
-1.138471477068988547e-01
-1.149402263601931595e-01
-1.160333050134874644e-01
-1.214986982799590026e-01
-1.214986982799590026e-01
-1.127540690536045359e-01
-1.204056196266646978e-01
-1.171263836667817693e-01
-1.149402263601931595e-01
-1.149402263601931595e-01
-1.225917769332533075e-01
-1.138471477068988547e-01
-1.083817544404273164e-01
-1.149402263601931595e-01
-1.193125409733703790e-01
-1.127540690536045359e-01
-1.051025184805443879e-01
-1.138471477068988547e-01
-1.083817544404273164e-01
-9.635788925418993511e-02
-7.558939484159810096e-02
-4.716934985594611884e-02
-3.623856332300304933e-02
-1.328391160382260371e-02
8.577661462063535316e-03
2.169460530159521977e-02
3.371847048783259415e-02
5.776620086030734985e-02
8.509316719266503404e-02
7.088314469983902910e-02
5.558004355371874011e-02
4.902157163395289702e-02
3.481154914112690596e-02
-1.260046417585227157e-03
-2.749393409664859650e-02
-3.733164197629736114e-02
-5.482090042900627375e-02
-7.777555214818672458e-02
-8.761326002783548228e-02
-1.127540690536045359e-01
-1.214986982799590026e-01
-1.236848555865476124e-01
-1.149402263601931595e-01
-1.160333050134874644e-01
-1.193125409733703790e-01
-1.182194623200760741e-01
-9.089249598771839689e-02
2.606691991477244966e-02
1.758186954160925186e-01
3.190119989976467063e-01
6.185155500002869067e-01
9.409737527221073705e-01
7.562434603153694868e-01
3.758520889689506705e-01
3.371847048783259415e-02
-1.816180242111458953e-01
-4.046060694831845050e-01
-4.876800471335518417e-01
-3.729067885376496361e-01
-2.187826984231523164e-01
-1.302433275063134555e-01
-8.324094541465824892e-02
-6.793784426853795300e-02
-5.919321504218350016e-02
-6.793784426853795300e-02
-4.716934985594611884e-02
-4.279703524276889243e-02
-4.170395658947458756e-02
-3.842472062959166601e-02
-3.514548466970874446e-02
-3.514548466970874446e-02
-3.405240601641443959e-02
-2.749393409664859650e-02
-2.640085544335428816e-02
-3.186624870982582292e-02
-3.842472062959166601e-02
-3.405240601641443959e-02
-2.202854083017706174e-02
-1.219083295052829710e-02
9.261108890033869188e-04
5.298425502180614637e-03
9.670740115357843655e-03
1.076381876865215026e-02
2.388076260818383298e-02
3.918386375430413238e-02
6.104543682019027140e-02
7.525545931301626246e-02
8.509316719266503404e-02
1.146062908316113210e-01
1.288163133244372982e-01
1.517709650436177560e-01
1.747256167627982137e-01
2.173556842412761869e-01
2.468688078802224739e-01
2.752888528658744560e-01
3.201050776509410389e-01
3.561766732096531829e-01
3.966205833815425463e-01
4.326921789402546348e-01
4.720430104588497211e-01
4.949976621780301511e-01
5.113938419774447519e-01
5.124869206307390845e-01
5.146730779373276388e-01
4.971838194846187609e-01
4.643914598857895593e-01
4.239475497139001958e-01
3.605489878228304024e-01
3.135466057311752097e-01
2.490549651868110836e-01
1.933079538688014243e-01
1.430263358172632893e-01
9.602395372560809661e-02
5.230080759383581857e-02
2.060152664830091490e-02
-8.911596990645375554e-03
-3.623856332300304933e-02
-7.121708022842088148e-02
-8.105478810806963919e-02
-9.089249598771839689e-02
-9.526481060089563024e-02
-1.083817544404273164e-01
-1.193125409733703790e-01
-1.346156421194906749e-01
-1.378948780793736173e-01
-1.444533499991394465e-01
-1.466395073057280563e-01
-1.269640915464305408e-01
-1.171263836667817693e-01
-1.138471477068988547e-01
-1.193125409733703790e-01
-1.138471477068988547e-01
-1.204056196266646978e-01
-1.171263836667817693e-01
-1.127540690536045359e-01
-1.029163611739557782e-01
-1.105679117470159262e-01
-1.160333050134874644e-01
-1.127540690536045359e-01
-1.160333050134874644e-01
-1.236848555865476124e-01
-1.313364061596077603e-01
-1.357087207727849798e-01
-1.433602713458451416e-01
-1.466395073057280563e-01
-1.499187432656109709e-01
-1.499187432656109709e-01
-1.564772151853768278e-01
-1.542910578787882181e-01
-1.499187432656109709e-01
-1.608495297985540473e-01
-1.608495297985540473e-01
-1.542910578787882181e-01
-1.521049005721996084e-01
-1.597564511452597424e-01
-1.510118219189052757e-01
-1.663149230650255994e-01
-1.630356871051426570e-01
-1.619426084518483522e-01
-1.619426084518483522e-01
-1.674080017183199043e-01
-1.674080017183199043e-01
-1.619426084518483522e-01
-1.739664736380857335e-01
-1.761526309446743432e-01
-1.728733949847914286e-01
-1.761526309446743432e-01
-1.761526309446743432e-01
-1.728733949847914286e-01
-1.805249455578515905e-01
-1.794318669045572578e-01
-1.772457095979686481e-01
-1.685010803716142092e-01
-1.717803163314971238e-01
-1.739664736380857335e-01
-1.685010803716142092e-01
-1.706872376782028189e-01
-1.521049005721996084e-01
-1.608495297985540473e-01
-1.521049005721996084e-01
-1.433602713458451416e-01
-1.094748330937216213e-01
-8.761326002783548228e-02
-6.684476561524364813e-02
-4.716934985594611884e-02
-3.951779928288597088e-02
-2.312161948347136661e-02
3.112268195592000995e-03
2.715999856806675453e-02
2.278768395488952811e-02
1.622921203512368502e-02
-1.260046417585227157e-03
-5.632361030762454875e-03
-4.170395658947458756e-02
-5.263474312241765707e-02
-6.356552965536073352e-02
-8.105478810806963919e-02
-1.072886757871330116e-01
-1.138471477068988547e-01
-1.400810353859622270e-01
-1.619426084518483522e-01
-1.674080017183199043e-01
-1.630356871051426570e-01
-1.619426084518483522e-01
-1.641287657584369619e-01
-1.630356871051426570e-01
-1.477325859590223611e-01
-6.793784426853795300e-02
9.055856045913655838e-02
2.195418415478647967e-01
4.840668756450871024e-01
8.393174379657368789e-01
8.415035952723254331e-01
4.578329879660237300e-01
5.558004355371874011e-02
-1.925488107440889440e-01
-4.067922267897731148e-01
-5.740332607438021206e-01
-5.051693055862607196e-01
-3.586967660448236450e-01
-2.329927209159783075e-01
-1.641287657584369619e-01
-1.389879567326679222e-01
-1.357087207727849798e-01
-1.280571701997248457e-01
-1.116609904003102310e-01
-9.963712521407286360e-02
-1.007302038673671685e-01
-8.214786676136394405e-02
-8.761326002783548228e-02
-7.558939484159810096e-02
-7.231015888171518635e-02
-5.919321504218350016e-02
-4.607627120265181397e-02
-3.951779928288597088e-02
-3.295932736312012779e-02
-2.858701274994290137e-02
-2.202854083017706174e-02
-7.818518337351068950e-03
9.261108890033869188e-04
1.404305472853507181e-02
2.497384126147814132e-02
3.699770644771551570e-02
3.918386375430413238e-02
5.011465028724720189e-02
5.339388624713012343e-02
6.104543682019027140e-02
8.509316719266503404e-02
1.167924481381999308e-01
1.397470998573803747e-01
1.506778863903234511e-01
1.703533021496209665e-01
2.020525830951558910e-01
2.435895719203395315e-01
2.731026955592858463e-01
3.113604484245866000e-01
3.463389653300044113e-01
3.736659316623620608e-01
4.075513699144855950e-01
4.392506508600205195e-01
4.458091227797863487e-01
4.589260666193180072e-01
4.786014823786155503e-01
4.709499318055553885e-01
4.578329879660237300e-01
4.315991002869603577e-01
3.889690328084823845e-01
3.375943361036499724e-01
2.862196393988175047e-01
2.195418415478647967e-01
1.812840886825640430e-01
1.200716840980828454e-01
7.853469527289919094e-02
3.481154914112690596e-02
-3.446203724173841233e-03
-2.421469813676567495e-02
-4.389011389606320424e-02
-7.449631618830379609e-02
-8.542710272124687254e-02
-9.198557464101271564e-02
-1.018232825206614733e-01
-1.040094398272500831e-01
-1.018232825206614733e-01
-9.089249598771839689e-02
-8.979941733442409202e-02
-7.558939484159810096e-02
-6.793784426853795300e-02
-7.121708022842088148e-02
-6.903092292183225787e-02
-5.154166446912335220e-02
-4.826242850924043065e-02
-4.061087793618028269e-02
-3.295932736312012779e-02
-2.530777679005997982e-02
-1.547006891041121865e-02
-1.669677642909201461e-04
-3.446203724173841233e-03
-1.219083295052829710e-02
-1.328391160382260371e-02
-6.725439684056762346e-03
-1.328391160382260371e-02
-8.911596990645375554e-03
-1.219083295052829710e-02
-2.640085544335428816e-02
-3.623856332300304933e-02
-3.733164197629736114e-02
-3.733164197629736114e-02
-4.170395658947458756e-02
-4.716934985594611884e-02
-4.716934985594611884e-02
-5.154166446912335220e-02
-6.247245100206642171e-02
-6.137937234877210990e-02
-6.137937234877210990e-02
-7.231015888171518635e-02
-7.121708022842088148e-02
-7.340323753500949122e-02
-7.121708022842088148e-02
-7.996170945477533432e-02
-7.886863080148102945e-02
-7.668247349489240583e-02
-8.761326002783548228e-02
-8.542710272124687254e-02
-7.668247349489240583e-02
-6.903092292183225787e-02
-6.793784426853795300e-02
-7.121708022842088148e-02
-8.105478810806963919e-02
-7.449631618830379609e-02
-6.793784426853795300e-02
-7.777555214818672458e-02
-8.542710272124687254e-02
-9.417173194760132537e-02
-1.018232825206614733e-01
-1.029163611739557782e-01
-9.963712521407286360e-02
-1.105679117470159262e-01
-1.204056196266646978e-01
-1.160333050134874644e-01
-1.072886757871330116e-01
-1.258710128931362360e-01
-1.302433275063134555e-01
-1.236848555865476124e-01
-1.072886757871330116e-01
-7.777555214818672458e-02
-5.372782177571196194e-02
-4.498319254935750910e-02
-3.514548466970874446e-02
-2.202854083017706174e-02
-7.818518337351068950e-03
1.294997607524076347e-02
2.497384126147814132e-02
9.670740115357843655e-03
-7.818518337351068950e-03
-2.968009140323720971e-02
-4.826242850924043065e-02
-5.591397908230057862e-02
-8.214786676136394405e-02
-9.526481060089563024e-02
-1.324294848129020652e-01
-1.466395073057280563e-01
-1.772457095979686481e-01
-1.980142040105604961e-01
-2.078519118902092400e-01
-2.133173051566807921e-01
-2.100380691967978775e-01
-2.002003613171491059e-01
-2.056657545836206302e-01
-2.045726759303263254e-01
-1.510118219189052757e-01
3.112268195592000995e-03
1.659809875364437470e-01
3.561766732096531829e-01
7.190787861033630657e-01
9.573699325215220268e-01
6.644248534386477667e-01
2.687303809461086268e-01
-4.826242850924043065e-02
-2.548542939818644326e-01
-4.439569010017795914e-01
-4.461430583083682011e-01
-3.149736199130513392e-01
-1.455464286524337514e-01
-4.279703524276889243e-02
-4.539282377468148270e-03
3.043923452794967607e-02
4.574233567406997547e-02
5.448696490042442830e-02
6.869698739325041936e-02
8.181393123278210555e-02
8.400008853937071529e-02
8.618624584595933891e-02
1.047685829519625494e-01
1.080478189118454779e-01
1.058616616052568543e-01
1.080478189118454779e-01
1.135132121783170162e-01
1.058616616052568543e-01
9.930318968549102510e-02
1.080478189118454779e-01
1.135132121783170162e-01
1.080478189118454779e-01
1.135132121783170162e-01
1.244439987112600787e-01
1.244439987112600787e-01
1.266301560178486885e-01
1.266301560178486885e-01
1.320955492843202406e-01
1.353747852442031552e-01
1.452124931238519268e-01
1.506778863903234511e-01
1.616086729232665276e-01
1.747256167627982137e-01
1.944010325220957291e-01
2.086110550149217202e-01
2.315657067341021780e-01
2.545203584532826357e-01
2.785680888257573429e-01
3.080812124647036576e-01
3.430597293701214689e-01
3.649213024360076218e-01
3.933413474216596040e-01
4.250406283671945284e-01
4.392506508600205195e-01
4.458091227797863487e-01
4.458091227797863487e-01
4.447160441264920161e-01
4.152029204875457569e-01
3.867828755018937748e-01
3.266635495707068682e-01
2.796611674790516755e-01
2.009595044418615584e-01
1.517709650436177560e-01
9.602395372560809661e-02
3.918386375430413238e-02
-1.219083295052829710e-02
-5.154166446912335220e-02
-8.652018137454117741e-02
-1.094748330937216213e-01
-1.214986982799590026e-01
-1.499187432656109709e-01
-1.641287657584369619e-01
-1.641287657584369619e-01
-1.783387882512629530e-01
-1.794318669045572578e-01
-1.805249455578515905e-01
-1.870834174776174197e-01
-1.925488107440889440e-01
-1.903626534375003343e-01
-1.848972601710288099e-01
-1.958280467039718864e-01
-1.892695747842060294e-01
-1.772457095979686481e-01
-1.575702938386711327e-01
-1.499187432656109709e-01
-1.422671926925508368e-01
-1.291502488530191506e-01
-1.313364061596077603e-01
-1.291502488530191506e-01
-1.258710128931362360e-01
-1.182194623200760741e-01
-1.149402263601931595e-01
-1.116609904003102310e-01
-1.149402263601931595e-01
-1.160333050134874644e-01
-1.083817544404273164e-01
-1.051025184805443879e-01
-1.171263836667817693e-01
-1.171263836667817693e-01
-1.193125409733703790e-01
-1.258710128931362360e-01
-1.193125409733703790e-01
-1.171263836667817693e-01
-1.171263836667817693e-01
-1.247779342398419172e-01
-1.105679117470159262e-01
-1.094748330937216213e-01
-1.182194623200760741e-01
-1.127540690536045359e-01
-1.007302038673671685e-01
-1.029163611739557782e-01
-1.127540690536045359e-01
-1.149402263601931595e-01
-1.127540690536045359e-01
-1.204056196266646978e-01
-1.127540690536045359e-01
-1.083817544404273164e-01
-1.127540690536045359e-01
-1.280571701997248457e-01
-1.236848555865476124e-01
-1.280571701997248457e-01
-1.236848555865476124e-01
-1.160333050134874644e-01
-1.247779342398419172e-01
-1.269640915464305408e-01
-1.105679117470159262e-01
-1.138471477068988547e-01
-1.160333050134874644e-01
-1.105679117470159262e-01
-1.018232825206614733e-01
-1.094748330937216213e-01
-9.526481060089563024e-02
-8.433402406795255379e-02
-5.044858581582904039e-02
-2.202854083017706174e-02
9.670740115357843655e-03
2.934615587465536773e-02
3.918386375430413238e-02
6.104543682019027140e-02
8.727932449925364378e-02
1.146062908316113210e-01
1.178855267914942356e-01
1.014893469920796348e-01
8.400008853937071529e-02
6.213851547348458321e-02
4.246309971418705392e-02
3.043923452794967607e-02
8.577661462063535316e-03
-1.656314756370552699e-02
-2.093546217688275340e-02
-3.951779928288597088e-02
-6.247245100206642171e-02
-8.324094541465824892e-02
-8.761326002783548228e-02
-9.854404656077854485e-02
-9.198557464101271564e-02
-9.963712521407286360e-02
-9.526481060089563024e-02
-9.635788925418993511e-02
-1.547006891041121865e-02
1.364678638974974600e-01
2.687303809461086268e-01
5.157661565906219714e-01
8.578997750717400894e-01
9.016229212035123952e-01
5.201384712037991909e-01
9.602395372560809661e-02
-2.264342489962124783e-01
-4.953315977066120035e-01
-5.980809911162768833e-01
-4.723769459874315735e-01
-3.106013052998741197e-01
-1.936418893973832489e-01
-1.422671926925508368e-01
-1.302433275063134555e-01
-1.214986982799590026e-01
-1.040094398272500831e-01
-8.979941733442409202e-02
-7.449631618830379609e-02
-6.247245100206642171e-02
-6.247245100206642171e-02
-6.247245100206642171e-02
-4.826242850924043065e-02
-3.733164197629736114e-02
-3.514548466970874446e-02
-2.421469813676567495e-02
-7.818518337351068950e-03
-1.260046417585227157e-03
8.577661462063535316e-03
1.841536934171229822e-02
4.574233567406997547e-02
4.574233567406997547e-02
5.230080759383581857e-02
6.432467278007319988e-02
6.760390873995611449e-02
8.400008853937071529e-02
9.055856045913655838e-02
1.146062908316113210e-01
1.233509200579657739e-01
1.342817065909088503e-01
1.528640436969120608e-01
1.648879088831494422e-01
2.009595044418615584e-01
2.239141561610420161e-01
2.632649876796370747e-01
2.763819315191687331e-01
3.168258416910580966e-01
3.441528080234158016e-01
3.725728530090677837e-01
4.217613924073115861e-01
4.622053025792009495e-01
4.818807183384984927e-01
5.081146060175618651e-01
5.332554150433308493e-01
5.616754600289828314e-01
5.638616173355714967e-01
5.420000442696853993e-01
5.288831004301536298e-01
4.993699767912073706e-01
4.687637744989667787e-01
4.239475497139001958e-01
3.638282237827132892e-01
3.211981563042353160e-01
2.774750101724630658e-01
2.304726280808078731e-01
1.878425606023298999e-01
1.495848077370291462e-01
1.036755042986682446e-01
7.962777392619349581e-02
4.246309971418705392e-02
1.732229068841799335e-02
-1.000467564393968389e-02
-3.077317005653151805e-02
-4.935550716253473552e-02
-7.449631618830379609e-02
-8.105478810806963919e-02
-9.089249598771839689e-02
-1.160333050134874644e-01
-1.225917769332533075e-01
-1.291502488530191506e-01
-1.324294848129020652e-01
-1.378948780793736173e-01
-1.389879567326679222e-01
-1.182194623200760741e-01
-1.236848555865476124e-01
-1.335225634661963701e-01
-1.225917769332533075e-01
-1.258710128931362360e-01
-1.291502488530191506e-01
-1.214986982799590026e-01
-1.258710128931362360e-01
-1.346156421194906749e-01
-1.269640915464305408e-01
-1.302433275063134555e-01
-1.346156421194906749e-01
-1.389879567326679222e-01
-1.521049005721996084e-01
-1.488256646123166660e-01
-1.444533499991394465e-01
-1.433602713458451416e-01
-1.531979792254939132e-01
-1.477325859590223611e-01
-1.269640915464305408e-01
-1.193125409733703790e-01
-1.258710128931362360e-01
-1.094748330937216213e-01
-1.007302038673671685e-01
-1.007302038673671685e-01
-1.040094398272500831e-01
-8.652018137454117741e-02
-9.198557464101271564e-02
-8.761326002783548228e-02
-8.870633868112978715e-02
-8.761326002783548228e-02
-8.979941733442409202e-02
-1.007302038673671685e-01
-9.526481060089563024e-02
-9.963712521407286360e-02
-1.051025184805443879e-01
-1.072886757871330116e-01
-1.182194623200760741e-01
-1.302433275063134555e-01
-1.313364061596077603e-01
-1.258710128931362360e-01
-1.269640915464305408e-01
-1.258710128931362360e-01
-1.193125409733703790e-01
-1.182194623200760741e-01
-9.854404656077854485e-02
-6.465860830865503839e-02
-4.279703524276889243e-02
-2.530777679005997982e-02
-1.219083295052829710e-02
9.261108890033869188e-04
2.019189542297693957e-03
4.683541432736428034e-02
6.651083008666180962e-02
4.027694240759843725e-02
3.043923452794967607e-02
8.577661462063535316e-03
-2.640085544335428816e-02
-5.372782177571196194e-02
-6.465860830865503839e-02
-8.324094541465824892e-02
-1.193125409733703790e-01
-1.346156421194906749e-01
-1.433602713458451416e-01
-1.641287657584369619e-01
-1.816180242111458953e-01
-1.892695747842060294e-01
-1.838041815177345051e-01
-1.816180242111458953e-01
-1.947349680506775815e-01
-1.870834174776174197e-01
-1.214986982799590026e-01
2.388076260818383298e-02
1.790979313759754332e-01
3.572697518629474600e-01
6.950310557308883030e-01
9.584630111748163594e-01
6.753556399715908709e-01
2.851265607455232276e-01
-3.842472062959166601e-02
-2.985774401136367384e-01
-4.942385190533176709e-01
-4.395845863886023164e-01
-2.931120468471651863e-01
-1.389879567326679222e-01
-7.668247349489240583e-02
-4.279703524276889243e-02
-2.858701274994290137e-02
-4.607627120265181397e-02
-4.607627120265181397e-02
-6.356552965536073352e-02
-6.028629369547780503e-02
-5.482090042900627375e-02
-4.389011389606320424e-02
-3.951779928288597088e-02
-4.061087793618028269e-02
-2.421469813676567495e-02
-1.765622621699983186e-02
-6.725439684056762346e-03
9.261108890033869188e-04
8.577661462063535316e-03
3.112268195592000995e-03
1.404305472853507181e-02
3.481154914112690596e-02
3.153231318124398441e-02
4.683541432736428034e-02
8.181393123278210555e-02
7.962777392619349581e-02
7.962777392619349581e-02
1.069547402585511731e-01
1.189786054447885405e-01
1.222578414046714690e-01
1.353747852442031552e-01
1.495848077370291462e-01
1.670740661897380519e-01
1.736325381095039089e-01
1.976802684819786438e-01
2.206349202011591015e-01
2.381241786538680072e-01
2.654511449862256844e-01
2.884057967054061145e-01
3.255704709174125910e-01
3.518043585964759634e-01
3.791313249288336129e-01
3.922482687683652713e-01
4.119236845276628145e-01
4.272267856737831382e-01
4.315991002869603577e-01
4.348783362468433000e-01
4.141098418342514242e-01
3.791313249288336129e-01
3.179189203443524292e-01
2.731026955592858463e-01
2.282864707742192356e-01
1.692602234963266616e-01
1.124201335250226974e-01
7.306930200642765272e-02
3.809078510100982751e-02
-1.669677642909201461e-04
-2.093546217688275340e-02
-4.716934985594611884e-02
-6.903092292183225787e-02
-8.433402406795255379e-02
-8.652018137454117741e-02
-1.105679117470159262e-01
-1.138471477068988547e-01
-1.149402263601931595e-01
-1.149402263601931595e-01
-1.204056196266646978e-01
-1.094748330937216213e-01
-1.018232825206614733e-01
-1.083817544404273164e-01
-1.083817544404273164e-01
-1.040094398272500831e-01
-9.745096790748423998e-02
-8.652018137454117741e-02
-8.324094541465824892e-02
-7.668247349489240583e-02
-1.007302038673671685e-01
-1.029163611739557782e-01
-9.854404656077854485e-02
-9.854404656077854485e-02
-1.051025184805443879e-01
-1.018232825206614733e-01
-1.138471477068988547e-01
-1.182194623200760741e-01
-1.061955971338387067e-01
-1.083817544404273164e-01
-1.204056196266646978e-01
-1.247779342398419172e-01
-1.149402263601931595e-01
-1.236848555865476124e-01
-1.214986982799590026e-01
-1.214986982799590026e-01
-1.072886757871330116e-01
-1.040094398272500831e-01
-9.854404656077854485e-02
-1.007302038673671685e-01
-9.854404656077854485e-02
-9.417173194760132537e-02
-7.777555214818672458e-02
-8.870633868112978715e-02
-8.542710272124687254e-02
-7.012400157512656274e-02
-8.324094541465824892e-02
-8.214786676136394405e-02
-7.886863080148102945e-02
-7.886863080148102945e-02
-8.761326002783548228e-02
-8.214786676136394405e-02
-7.996170945477533432e-02
-8.979941733442409202e-02
-8.979941733442409202e-02
-8.433402406795255379e-02
-7.886863080148102945e-02
-9.417173194760132537e-02
-8.324094541465824892e-02
-7.777555214818672458e-02
-8.105478810806963919e-02
-6.137937234877210990e-02
-2.858701274994290137e-02
-1.437699025711691204e-02
8.577661462063535316e-03
1.622921203512368502e-02
2.715999856806675453e-02
4.246309971418705392e-02
8.837240315254794865e-02
9.602395372560809661e-02
7.962777392619349581e-02
7.197622335313334785e-02
6.213851547348458321e-02
2.825307722136106287e-02
2.019189542297693957e-03
-1.547006891041121865e-02
-3.405240601641443959e-02
-5.919321504218350016e-02
-7.449631618830379609e-02
-9.089249598771839689e-02
-1.214986982799590026e-01
-1.225917769332533075e-01
-1.247779342398419172e-01
-1.204056196266646978e-01
-1.280571701997248457e-01
-1.193125409733703790e-01
-1.214986982799590026e-01
-8.870633868112978715e-02
3.809078510100982751e-02
1.736325381095039089e-01
3.113604484245866000e-01
6.043055275074608046e-01
8.764821121777433000e-01
6.425632803727615583e-01
2.894988753587004471e-01
8.577661462063535316e-03
