Sample rate: 200 Hz
-2.176896197698580115e-01
-1.331730515668078096e-02
-2.111311478500921546e-01
-4.231550130363295747e-01
-2.111311478500922378e-01
-2.003613171490947753e-04
-2.034795972770319372e-01
-4.122242265033865261e-01
-2.067588332369150461e-01
-5.665754583620619123e-03
-2.034795972770322425e-01
-3.991072826638548121e-01
-1.859903388243232536e-01
1.182350386908828654e-02
-1.827111028644407276e-01
-3.827111028644402113e-01
-1.772457095979688424e-01
2.056813309544275326e-02
-1.750595522913798163e-01
-3.739664736380857724e-01
-1.619426084518478803e-01
3.696431289485735405e-02
-1.674080017183203484e-01
-3.575702938386711160e-01
-1.564772151853771331e-01
4.352278481462318327e-02
-1.597564511452601310e-01
-3.488256646123166771e-01
-1.422671926925497543e-01
5.663972865415486946e-02
-1.477325859590226942e-01
-3.488256646123166771e-01
-1.357087207727853684e-01
5.336049269427195485e-02
-1.400810353859625323e-01
-3.422671926925508479e-01
-1.488256646123171101e-01
4.242970616132887840e-02
-1.564772151853770776e-01
-3.521049005721996195e-01
-1.499187432656100272e-01
5.008125673438904024e-02
-1.466395073057282505e-01
-3.542910578787882292e-01
-1.531979792254930250e-01
5.008125673438904024e-02
-1.510118219189068578e-01
-3.433602713458451250e-01
-1.433602713458457245e-01
5.773280730744917433e-02
-1.357087207727850908e-01
-3.280571701997248568e-01
-1.378948780793728401e-01
6.210512192062639381e-02
-1.346156421194921460e-01
-3.269640915464305797e-01
-1.378948780793714524e-01
7.194282980027516539e-02
-9.963712521407286360e-02
-2.755893948415981121e-01
-5.810013638888850834e-02
1.550168074506425020e-01
-2.530777679006135372e-02
-2.067254396840567665e-01
1.841536934171151413e-02
2.479284929806586102e-01
4.464925702077576775e-02
-1.739330800852275649e-01
9.670740115358431727e-03
1.932745603159432557e-01
-3.842472062959294277e-02
-2.504485858158290723e-01
-7.121708022842176966e-02
1.058282680523986857e-01
-1.149402263601929652e-01
-3.280571701997248568e-01
-1.499187432656104713e-01
2.494044770861997273e-02
-1.695941590249096798e-01
-3.750595522913800495e-01
-1.827111028644383406e-01
1.619581848226550602e-02
-1.859903388243256683e-01
-3.706872376782028300e-01
-8.433402406795216522e-02
2.774416166196048694e-01
2.162626055879836584e-01
2.665776171923781579e-01
8.262004941262069968e-01
1.054620539111857269e+00
4.753222464187329965e-01
-1.313030126067495917e-01
-1.881764961309085882e-01
-2.199091706293048176e-01
-5.751263393970974525e-01
-6.953315977066120146e-01
-3.499521368184703163e-01
-2.206193438303521992e-02
-1.674080017183222635e-01
-3.389879567326679055e-01
-1.346156421194904806e-01
6.647743653380364104e-02
-1.225917769332513507e-01
-3.105679117470159234e-01
-1.007302038673656003e-01
1.112936613188702240e-01
-8.870633868112920428e-02
-2.821478667613639413e-01
-6.028629369547486294e-02
1.353413916913449588e-01
-6.465860830865582942e-02
-2.504485858158290723e-01
-3.842472062958735002e-02
1.572029647572311117e-01
-2.968009140323936770e-02
-2.143769902571169284e-01
-2.353125070879533761e-03
1.987399535824147800e-01
1.841536934171445275e-02
-1.728400014319332600e-01
2.715999856806812843e-02
2.413700210608927532e-01
5.995235816689675062e-02
-1.367684058732211438e-01
7.744161661960762000e-02
3.080478189118455168e-01
1.178855267914936528e-01
-5.588058552944241697e-02
1.583294369633820309e-01
3.976802684819786826e-01
2.337518640406888171e-01
6.982345959940289282e-02
3.102673697712920453e-01
5.408735720635329258e-01
3.780382462755359496e-01
2.064582912611912513e-01
4.381575722067273526e-01
6.490883587396693022e-01
4.840668756450823840e-01
3.059284487109731887e-01
5.037422914043871991e-01
6.906253475648529427e-01
4.589260666193176186e-01
2.086444485677799165e-01
3.550835945563570739e-01
5.080812124647036132e-01
2.414034146137491454e-01
-1.543667535755305353e-02
1.353747852442027666e-01
2.971170323789024126e-01
5.120772894054405333e-02
-1.826777093115820039e-01
-1.109775429723301038e-02
1.659475939835855784e-01
-5.263474312241648440e-02
-2.690309229218322828e-01
-8.324094541465588970e-02
1.014559534392214663e-01
-9.198557464101290992e-02
-2.985440465607785421e-01
-9.745096790748052074e-02
1.025490320925157711e-01
-9.635788925419150330e-02
-3.007302038673671518e-01
-1.051025184805392948e-01
9.599056017274992803e-02
-1.007302038673701106e-01
-3.040094398272500942e-01
-8.979941733442330098e-02
1.134798186254588337e-01
-9.198557464101134173e-02
-2.887063386811298260e-01
-7.449631618830732105e-02
1.331552343847563491e-01
-7.777555214819241447e-02
-2.679378442685379502e-01
-6.793784426853442804e-02
1.276898411182848248e-01
-7.886863080148240335e-02
-2.788686308014810544e-01
-8.105478810807041634e-02
1.244106051584019101e-01
-7.777555214818378249e-02
-2.744963161883038349e-01
-6.793784426853168024e-02
1.364344703446392915e-01
-7.340323753501361292e-02
-2.734032375350095023e-01
-6.575168696194738649e-02
1.408067849578165109e-01
-6.575168696194914897e-02
-2.701240015751265600e-01
-5.919321504218585245e-02
1.287829197715791296e-01
-6.137937234876759962e-02
-2.591932150421835113e-01
-6.137937234876740533e-02
1.244106051584019101e-01
-6.247245100206896828e-02
-2.668447656152436731e-01
-6.356552965536034494e-02
1.484583355308766728e-01
-4.716934985594435636e-02
-2.581001363888891786e-01
-5.591397908230449909e-02
1.429929422644051207e-01
-5.700705773560017786e-02
-2.635655296553607307e-01
-6.465860830865190201e-02
1.309690770781677394e-01
-7.012400157512754806e-02
-2.679378442685379502e-01
-7.558939484159928057e-02
1.255036838116962150e-01
-7.012400157513459797e-02
-2.766824734948923892e-01
-7.558939484159221678e-02
1.265967624649905199e-01
-7.340323753501321047e-02
-2.723101588817151697e-01
-8.214786676136237586e-02
1.244106051584019101e-01
-7.012400157513734578e-02
-2.482624285092404348e-01
-2.749393409663997145e-02
2.074845828087692468e-01
1.732229068841152284e-02
-1.903292598846421657e-01
3.371847048783691014e-02
2.697900660465447631e-01
7.962777392617996497e-02
-1.258376193402780396e-01
6.869698739325041936e-02
2.632315941267788784e-01
5.339388624713228143e-02
-1.728400014319332600e-01
1.841536934170798570e-02
1.932745603159432557e-01
-1.765622621699336481e-02
-2.351454846697087486e-01
-6.137937234876936210e-02
1.211313691985189817e-01
-9.635788925419051798e-02
-2.996371252140728747e-01
-9.417173194760289356e-02
1.058282680523986857e-01
-1.029163611739520590e-01
-3.138471477068988658e-01
-8.652018137453568181e-02
2.052984255021806370e-01
1.463055717771429010e-01
7.856808882575733177e-02
5.474654375361580616e-01
1.089599056017275025e+00
8.819475054442158513e-01
3.103007633241504082e-01
1.255370773645512472e-01
7.631514441345239874e-02
-3.499521368184752013e-01
-6.953315977066120146e-01
-4.275607212023610493e-01
-8.764665358069367862e-02
-1.597564511452615188e-01
-2.941717319476013226e-01
-8.542710272124726112e-02
1.200382905452246768e-01
-6.684476561525247440e-02
-2.570070577355949015e-01
-4.279703524276222415e-02
1.539237287973481971e-01
-5.044858581583355067e-02
-2.460762712026518251e-01
-3.186624870982347063e-02
1.561098861039368069e-01
-3.733164197630892828e-02
-2.285870127499429194e-01
-2.421469813675626581e-02
1.801576164764115695e-01
-6.725439684064016092e-03
-1.979808104577023276e-01
-6.725439684051664861e-03
2.009261108890033898e-01
9.670740115366270942e-03
-1.859569452714649462e-01
2.715999856806753862e-02
2.446492570207756678e-01
6.432467278007457379e-02
-1.181860687672179056e-01
9.602395372560457165e-02
3.222578414046715078e-01
1.397470998573860645e-01
-4.057748438332209329e-02
1.856564032957447874e-01
4.118902909748046737e-01
2.370311000005723423e-01
7.091653825269722544e-02
3.080812124647028805e-01
5.507112799431816974e-01
3.867828755018967168e-01
2.108306058743685263e-01
4.490883587396641841e-01
6.862530329516757233e-01
5.168592352439121962e-01
3.365346510032138361e-01
5.474654375361588388e-01
7.551169881092170133e-01
5.409069656163912887e-01
2.928115048714415303e-01
4.490883587396669596e-01
5.966205833815425574e-01
3.375943361036430890e-01
8.512656074552321650e-02
2.446826505736385826e-01
3.736325381095039200e-01
1.233509200579632203e-01
-1.105345181941577576e-01
5.885927951360205718e-02
2.304392345279496768e-01
-4.539282377477754302e-03
-2.242146981367656999e-01
-4.170395658946713519e-02
1.528306501440538923e-01
-6.903092292183754530e-02
-2.832409454146582739e-01
-8.433402406794941741e-02
1.167590545853417622e-01
-9.417173194761367661e-02
-2.941717319476013226e-01
-9.963712521406266343e-02
9.817671747933853776e-02
-9.745096790749227522e-02
-3.007302038673671518e-01
-9.198557464100683145e-02
9.926979613263284263e-02
-7.996170945477905356e-02
-2.602862936954778439e-01
-5.591397908229901043e-02
1.309690770781677394e-01
-7.996170945477475145e-02
-2.690309229218322828e-01
-7.558939484160084876e-02
1.200382905452246768e-01
-7.996170945477043546e-02
-2.799617094547753315e-01
-7.886863080148807936e-02
1.145728972787531386e-01
-7.886863080147181460e-02
-2.788686308014810544e-01
-7.777555214817535867e-02
1.112936613188702240e-01
-8.214786676137315891e-02
-2.832409454146582739e-01
-7.449631618829673230e-02
1.134798186254588337e-01
-9.089249598772329575e-02
-2.887063386811298260e-01
-8.870633868112703935e-02
1.058282680523986857e-01
-1.040094398272506659e-01
-3.061955971338387039e-01
-1.138471477069004228e-01
7.850130172004100848e-02
-1.302433275063097362e-01
-3.247779342398419145e-01
-1.269640915464364250e-01
7.194282980027516539e-02
-1.247779342398566138e-01
-3.357087207727850187e-01
-1.368017994260667392e-01
5.445357134756625972e-02
-1.499187432656213514e-01
-3.499187432656110097e-01
-1.455464286524255080e-01
5.445357134756625972e-02
-1.608495297985601258e-01
-3.564772151853768389e-01
-1.652218444117273533e-01
3.368507693497441169e-02
-1.641287657584387383e-01
-3.838041815177345439e-01
-1.783387882512633416e-01
3.368507693497441169e-02
-1.368017994260994630e-01
-3.269640915464305797e-01
-1.160333050134921690e-01
1.036421107458100760e-01
-8.324094541465139330e-02
-2.690309229218322828e-01
-3.842472062960067963e-02
1.768783805165286549e-01
-4.061087793616911107e-02
-2.460762712026518251e-01
-5.044858581581963125e-02
1.265967624649905199e-01
-1.051025184805516460e-01
-3.269640915464305797e-01
-1.455464286524286444e-01
2.821968366850288734e-02
-1.892695747842089715e-01
-3.980142040105605350e-01
-2.231550130363287865e-01
-2.752732764950677202e-02
-2.450165861022370606e-01
-4.362719568758612332e-01
-2.417373501423362991e-01
-5.048197936868720204e-02
-2.570404512884700843e-01
-4.133173051566808032e-01
-6.793784426854579395e-02
3.025824256453739647e-01
2.741957742125901154e-01
4.043055275074607935e-01
8.655513256448107429e-01
7.769785611751032217e-01
1.364678638975117542e-01
-4.067588332369149740e-01
-3.925822042969408510e-01
-4.079186989959256437e-01
-6.439902945546190915e-01
-7.314031932653242141e-01
-3.718137098843533606e-01
-6.578508051480752572e-02
-2.253411703429179791e-01
-4.089449905435035837e-01
-2.002003613171514651e-01
1.291658252238259141e-02
-1.706872376781983225e-01
-3.564772151853768389e-01
-1.389879567326518517e-01
6.757051518709794591e-02
-1.193125409733615666e-01
-3.182194623200760852e-01
-1.160333050134756960e-01
8.833900959968978006e-02
-1.029163611739426498e-01
-2.799617094547753315e-01
-7.886863080147357707e-02
1.189452118919303719e-01
-6.903092292183754530e-02
-2.504485858158290723e-01
-5.044858581582590401e-02
1.659475939835855784e-01
-1.109775429723497235e-02
-2.100046756439397089e-01
-7.818518337329506337e-03
2.063915041554749419e-01
1.076381876865548093e-02
-1.673746081654617357e-01
4.792849298067583530e-02
2.861862458459593639e-01
9.493087507232143840e-02
-8.211447320850577547e-02
1.517709650436306901e-01
3.911217965622127979e-01
2.282864707742084664e-01
6.545114498622567334e-02
3.015227405449464326e-01
5.441528080234158127e-01
3.835036395420043376e-01
2.195752351007229652e-01
4.469022014331076598e-01
6.775084037253212843e-01
4.939045835247337091e-01
2.960907408313244726e-01
4.764153250720269406e-01
6.447160441264920827e-01
4.042721339546048176e-01
1.539905159030645621e-01
2.960573472784619464e-01
4.392172573071623232e-01
1.725394594561933115e-01
-7.883523724862284698e-02
7.416238065971333948e-02
2.380907851010098386e-01
-1.328391160383456289e-02
-2.351454846697087486e-01
-5.591397908231351271e-02
1.222244478518132865e-01
-9.635788925419758177e-02
-3.061955971338387039e-01
-1.149402263601876639e-01
7.084975114698086052e-02
-1.302433275063167861e-01
-3.335225634661963534e-01
-1.466395073057268905e-01
5.445357134756625972e-02
-1.510118219189270361e-01
-3.575702938386711160e-01
-1.586633724919685740e-01
3.696431289485735405e-02
-1.619426084518658104e-01
-3.477325859590223445e-01
-1.368017994260867232e-01
5.445357134756625972e-02
-1.444533499991525749e-01
-3.335225634661963534e-01
-1.324294848128910740e-01
6.210512192062639381e-02
-1.357087207727938061e-01
-3.291502488530191339e-01
-1.313364061596010990e-01
6.210512192062639381e-02
-1.313364061596122845e-01
-3.433602713458451250e-01
-1.466395073057256970e-01
5.663972865415486946e-02
-1.269640915464534670e-01
-3.346156421194906860e-01
-1.411741140392585026e-01
6.866359384039225078e-02
-1.269640915464491648e-01
-3.225917769332533047e-01
-1.204056196266709705e-01
7.740822306674670361e-02
-1.236848555865391885e-01
-3.204056196266646950e-01
-1.236848555865354554e-01
8.615285229310115644e-02
-1.171263836667690295e-01
-3.258710128931362471e-01
-1.269640915464226860e-01
7.303590845356947026e-02
-1.291502488530021087e-01
-3.291502488530191339e-01
-1.269640915464270159e-01
8.068745902662963210e-02
-1.204056196266660717e-01
-3.247779342398419145e-01
-1.280571701997256229e-01
6.757051518709794591e-02
-1.335225634661934280e-01
-3.214986982799590276e-01
-1.193125409733527403e-01
8.287361633321824184e-02
-1.182194623200688299e-01
-3.160333050134874755e-01
-1.160333050134741278e-01
7.522206576015809387e-02
-1.225917769332417473e-01
-3.280571701997248568e-01
-1.051025184805353674e-01
9.380440286616130441e-02
-1.061955971338455762e-01
-3.061955971338387039e-01
-1.007302038673624639e-01
9.489748151945562316e-02
-9.635788925419248863e-02
-2.919855746410127129e-01
-6.684476561522051385e-02
1.648545153302912736e-01
-2.202854083017529926e-02
-2.100046756439397089e-01
7.484582808788047860e-03
2.271599985680667622e-01
3.481154914113297749e-02
-1.269306979935723723e-01
7.853469527291369323e-02
2.632315941267788784e-01
4.464925702076331937e-02
-1.630022935522844885e-01
8.577661462073730286e-03
1.910884030093546460e-01
-2.530777679006801853e-02
-2.460762712026518251e-01
-6.247245100208327628e-02
1.287829197715791296e-01
-8.979941733442782514e-02
-3.182194623200760852e-01
-1.313364061596061783e-01
7.303590845356947026e-02
-1.193125409733697961e-01
-3.182194623200760852e-01
-1.127540690536072837e-01
8.724593094639547519e-02
-5.263474312243549696e-02
-9.413833839474315679e-02
2.512411224933926435e-01
6.862530329516757233e-01
8.305728087393688952e-01
7.431599100286960802e-01
5.857231904014462698e-01
3.834702459891526916e-01
-9.635788925419914996e-02
-5.390213502855261130e-01
-5.007969909730763947e-01
-2.253745638957763142e-01
-2.963912828070530137e-01
-3.564772151853768389e-01
-9.526481060089288244e-02
1.244106051584019101e-01
-7.012400157514989130e-02
-2.646586083086550634e-01
-5.700705773559645168e-02
1.484583355308766728e-01
-4.498319254937652167e-02
-2.373316419762973584e-01
-2.640085544336016540e-02
1.768783805165286549e-01
-1.656314756372023050e-02
-2.012600464175852422e-01
9.670740115347653890e-03
2.085776614620635516e-01
9.670740115347452662e-03
-1.739330800852275649e-01
2.169460530160345624e-02
2.359046277944212289e-01
4.792849298065250674e-02
-1.509784283660471071e-01
6.651083008666573704e-02
2.850931671926650313e-01
9.383779641899497870e-02
-9.741757435462607140e-02
1.167924481381995422e-01
3.178855267914942329e-01
1.408401785106545012e-01
-3.292593381026195920e-02
1.922148752155024287e-01
3.965871898286843500e-01
2.217279988544602620e-01
4.358957192033952044e-02
2.763819315191824444e-01
5.015227405449378395e-01
3.310358641838952454e-01
1.769451676222449921e-01
4.075513699144950319e-01
6.512745160462578564e-01
4.796945610319253706e-01
3.113938419774447408e-01
5.376277296565132868e-01
7.540239094559226807e-01
5.474654375361538428e-01
3.277900217768593971e-01
4.993699767912081477e-01
6.622053025792009606e-01
4.031790553013097633e-01
1.496182012898872871e-01
2.993365832383684255e-01
4.359380213472794363e-01
1.736325381095095988e-01
-7.883523724862284698e-02
7.306930200644255746e-02
2.413700210608927532e-01
8.577661462073529058e-03
-2.034462037241738519e-01
-2.421469813675508620e-02
1.517375714907595874e-01
-5.591397908230900937e-02
-2.723101588817151697e-01
-7.668247349488613307e-02
1.156659759320474573e-01
-7.777555214819084628e-02
-2.854271027212468836e-01
-9.089249598769369443e-02
1.047351893991043809e-01
-8.652018137454098312e-02
-2.854271027212468836e-01
-8.761326002781509581e-02
1.167590545853417622e-01
-7.668247349488789555e-02
-2.755893948415981121e-01
-7.777555214817065410e-02
1.265967624649905199e-01
-6.575168696194053086e-02
-2.690309229218322828e-01
-7.996170945476356595e-02
1.265967624649905199e-01
-7.012400157511343435e-02
-2.755893948415981121e-01
-7.668247349488495346e-02
1.287829197715791296e-01
-7.558939484162613409e-02
-2.712170802284208926e-01
-7.012400157512342636e-02
1.353413916913449588e-01
-6.684476561526736527e-02
-2.690309229218322828e-01
-6.575168696195052287e-02
1.418998636111108158e-01
-5.810013638890860338e-02
-2.581001363888891786e-01
-6.137937234877759857e-02
1.397137063045222061e-01
-5.700705773560998252e-02
-2.646586083086550634e-01
-7.231015888172498407e-02
1.200382905452246768e-01
-8.105478810808042223e-02
-2.854271027212468836e-01
-8.652018137455529112e-02
1.211313691985189817e-01
-8.761326002784194933e-02
-2.974509679074842650e-01
-8.324094541467666475e-02
1.145728972787531386e-01
-1.061955971338408716e-01
-3.007302038673671518e-01
-9.089249598769565119e-02
1.112936613188702240e-01
-9.198557464101056458e-02
-2.876132600278354934e-01
-9.417173194758289567e-02
1.025490320925157711e-01
-9.307865329430055346e-02
-2.963578892541899323e-01
-9.745096790747012627e-02
1.091075040122816142e-01
-9.526481060093032471e-02
-2.985440465607785421e-01
-1.007302038673573708e-01
1.069213467056929906e-01
-1.072886757871633900e-01
-3.029163611739558171e-01
-8.870633868112429155e-02
1.244106051584019101e-01
-6.575168696197541962e-02
-2.406108779361803007e-01
-1.984238352358726545e-02
1.845299310895887890e-01
5.298425502204329174e-03
-1.651884508588730982e-01
6.760390873995297811e-02
2.632315941267788784e-01
5.448696490045245450e-02
-1.531645856726357446e-01
5.230080759382837313e-02
2.348115491411269240e-01
4.205346848873171839e-03
-2.198423835235884527e-01
-1.984238352360020302e-02
1.561098861039368069e-01
-4.389011389607203051e-02
-2.755893948415981121e-01
-9.963712521404345657e-02
9.161824555957269467e-02
-1.061955971338432170e-01
-2.963578892541899323e-01
-1.007302038673420774e-01
9.599056017274992803e-02
-8.979941733442428631e-02
-2.132839116038226235e-01
1.310024706310467246e-01
4.807542461323460192e-01
4.829737969917968776e-01
6.404105166190312559e-01
1.000000000000016431e+00
8.545871455589990617e-01
2.326587853874049205e-01
-2.504485858158290723e-01
-2.362719568758490651e-01
-2.373984290820136955e-01
-4.428638223484725467e-01
-5.237182491394057893e-01
-1.695941590249006592e-01
1.102005826655759191e-01
-6.684476561522659233e-02
-2.559139790823005689e-01
-4.061087793617675079e-02
1.626683580237026638e-01
-3.623856332302716199e-02
-2.176562262169998430e-01
-8.911596990646156180e-03
1.954607176225318654e-01
7.484582808749428579e-03
-1.903292598846421657e-01
1.622921203516406591e-02
2.195084479950066281e-01
2.060152664828542729e-02
-1.793984733516990893e-01
3.481154914111750376e-02
2.326253918345382865e-01
4.464925702076449204e-02
-1.542576643259300218e-01
5.011465028723348369e-02
2.588592795136016589e-01
5.120772894053464419e-02
-1.455130350995755828e-01
7.634853796629254008e-02
2.927447177657251931e-01
1.014893469920770813e-01
-8.320755186180008034e-02
1.320955492842978973e-01
3.419332571639689955e-01
1.627017515765625810e-01
-9.971282091081501431e-03
2.162626055880007003e-01
4.490549651868110947e-01
2.752888528658805067e-01
9.496426862517198808e-02
3.299427855306042989e-01
5.671074597425962427e-01
3.900621114617415786e-01
2.239475497139001847e-01
4.490883587396795051e-01
6.731360891121440648e-01
4.884391902582335687e-01
2.906253475648529205e-01
4.742291677654442150e-01
6.239475497139002069e-01
3.911551901150445154e-01
1.375943361036499613e-01
2.763819315191702874e-01
4.097041336682160084e-01
1.594225156167012325e-01
-8.867294512827161856e-02
5.776620086035008650e-02
2.184153693417122954e-01
-2.093546217690059330e-02
-2.526347431224176820e-01
-9.089249598772544680e-02
8.724593094639547519e-02
-1.258710128931042893e-01
-3.466395073057280674e-01
-1.608495297985199357e-01
3.587123424156304918e-02
-1.794318669045664727e-01
-3.827111028644402113e-01
-1.805249455578672724e-01
9.637346562499676805e-03
-1.925488107440938568e-01
-3.991072826638548121e-01
-2.045726759303463094e-01
-8.944990543503561486e-03
-2.100380691967984603e-01
-3.947349680506775926e-01
-1.969211253572450138e-01
2.384736905532566786e-02
-1.674080017183161850e-01
-3.706872376782028300e-01
-1.739664736381143495e-01
3.149891962838580195e-02
-1.663149230650630417e-01
-3.794318669045572689e-01
-1.794318669045447123e-01
2.931276232179719221e-02
-1.805249455578392392e-01
-3.838041815177345439e-01
-1.892695747842432774e-01
1.291658252238259141e-02
-1.892695747842348397e-01
-3.980142040105605350e-01
-1.991072826638508875e-01
4.171953296028124702e-03
-1.783387882512419698e-01
-3.761526309446743266e-01
-1.739664736380861221e-01
2.712660501520858247e-02
-1.641287657584571680e-01
-3.630356871051426682e-01
-1.499187432656156616e-01
5.336049269427195485e-02
-1.586633724919813138e-01
-3.499187432656110097e-01
-1.466395073057370768e-01
5.663972865415486946e-02
-1.542910578787997922e-01
-3.389879567326679055e-01
-1.378948780793414763e-01
5.882588596074347920e-02
-1.466395073057353005e-01
-3.389879567326679055e-01
-1.411741140392741567e-01
6.319820057392072643e-02
-1.280571701997732514e-01
-3.313364061596077992e-01
-1.324294848128785285e-01
7.084975114698086052e-02
-1.247779342398405433e-01
-3.269640915464305797e-01
-1.247779342398681740e-01
7.412898710686377513e-02
-1.291502488530589521e-01
-3.324294848129020763e-01
-1.302433275062985507e-01
8.943208825298408493e-02
-8.105478810805964718e-02
-2.548209004290062918e-01
-2.530777679004939107e-02
1.779714591698229598e-01
-1.437699025710260751e-02
-1.947015744978193852e-01
3.809078510101610027e-02
2.369977064477155337e-01
3.918386375427727192e-02
-1.640953722055787933e-01
1.185689742194842057e-02
1.867160883961773987e-01
-2.640085544333135859e-02
-2.406108779361803007e-01
-7.449631618826066393e-02
1.156659759320474573e-01
-9.417173194761956079e-02
-3.171263836667818081e-01
-1.389879567326745835e-01
4.570894212121179301e-02
-1.652218444116997087e-01
-3.652218444117312779e-01
-1.586633724919309374e-01
4.680202077450609788e-02
-1.630356871051522605e-01
-3.214986982799590276e-01
-7.818518337366353599e-03
3.452124931238519379e-01
2.993365832383439451e-01
4.185155500002868956e-01
9.180191010029528087e-01
9.332888085961890123e-01
3.277566282240002016e-01
-2.504485858158290723e-01
-2.756227883944347701e-01
-2.920523617467290500e-01
-5.598232382509727989e-01
-6.570738448413112609e-01
-2.920189681938536452e-01
1.619581848226550602e-02
-1.455464286524715822e-01
-3.302433275063134666e-01
-1.083817544404143823e-01
9.052516690627838980e-02
-1.051025184805324392e-01
-2.952648106008956552e-01
-8.652018137448706792e-02
1.189452118919303719e-01
-8.870633868115899989e-02
-2.712170802284208926e-01
-6.247245100206210572e-02
1.418998636111108158e-01
-4.826242850921985683e-02
-2.406108779361803007e-01
-3.186624870982581598e-02
1.812506951297058744e-01
-1.765622621702041609e-02
-2.110977542972340137e-01
5.298425502176306451e-03
2.129499760752407711e-01
1.404305472851879837e-02
-1.793984733516990893e-01
3.371847048782397605e-02
2.446492570207756678e-01
5.448696490041246565e-02
-1.225583833803951389e-01
9.165163911246340667e-02
2.982101110321967452e-01
1.167924481381922841e-01
-6.134597879591394132e-02
1.648879088831322060e-01
3.911217965622127979e-01
2.304726280807590511e-01
5.998575171975412124e-02
2.927781113186072592e-01
5.332220214904727085e-01
3.692936170491858405e-01
2.020859766480140318e-01
4.348783362468174318e-01
6.632983812324952932e-01
4.753222464186924179e-01
2.851599542983813684e-01
4.807876396852194256e-01
6.567399093127294085e-01
4.250406283672041319e-01
1.835036395420108213e-01
3.310358641838950788e-01
4.720096169059915248e-01
2.184487628945389337e-01
-3.401901246355626407e-02
1.135132121783236914e-01
2.665108300866618207e-01
3.371847048780534511e-02
-2.023531250708795470e-01
-3.405240601641208037e-02
1.506444928374652825e-01
-5.263474312244059705e-02
-2.701240015751265600e-01
-8.105478810802611844e-02
1.222244478518132865e-01
-8.324094541467687292e-02
-2.887063386811298260e-01
-9.307865329431329326e-02
9.926979613263284263e-02
-9.963712521404170797e-02
-2.996371252140728747e-01
-1.105679117469810374e-01
1.003628747859271475e-01
-9.635788925419994100e-02
-2.908924959877183802e-01
-9.198557464102760650e-02
1.123867399721645288e-01
-8.542710272125256243e-02
-2.908924959877183802e-01
-7.996170945474906366e-02
1.276898411182848248e-01
-7.449631618830516999e-02
-2.854271027212468836e-01
-7.668247349487045117e-02
1.211313691985189817e-01
-8.870633868112684506e-02
-2.919855746410127129e-01
-8.652018137452353874e-02
1.058282680523986857e-01
-8.542710272123962834e-02
-2.908924959877183802e-01
-8.324094541464491237e-02
1.156659759320474573e-01
-8.761326002782392208e-02
-2.744963161883038349e-01
-8.214786676135492349e-02
1.244106051584019101e-01
-7.231015888174478767e-02
-2.744963161883038349e-01
-7.121708022841617691e-02
1.364344703446392915e-01
-6.356552965534055522e-02
-2.646586083086550634e-01
-6.684476561519778204e-02
1.451790995709937304e-01
-6.137937234879308618e-02
-2.613793723487721210e-01
-5.700705773559879702e-02
1.386206276512279012e-01
-5.810013638886038501e-02
-2.493555071625347397e-01
-4.498319254932026112e-02
1.408067849578165109e-01
-5.154166446913570343e-02
-2.526347431224176820e-01
-5.482090042901881233e-02
1.386206276512279012e-01
-5.154166446913139438e-02
-2.526347431224176820e-01
-6.028629369549465961e-02
1.408067849578165109e-01
-6.247245100207014790e-02
-2.646586083086550634e-01
-5.700705773557057654e-02
1.440860209176994255e-01
-6.356552965536015065e-02
-2.657516869619493405e-01
-7.121708022844636110e-02
1.397137063045222061e-01
-5.482090042904685240e-02
-2.482624285092404348e-01
-5.372782177569627310e-02
1.429929422644051207e-01
-6.465860830864582354e-02
-2.548209004290062918e-01
-5.044858581586314505e-02
1.856230097428830939e-01
7.484582808737274238e-03
-1.761192373918161747e-01
2.934615587466242806e-02
2.446492570207756678e-01
6.213851547350241616e-02
-1.159999114606292958e-01
1.113270548717311403e-01
3.036755042986682418e-01
9.711703237887907292e-02
-1.269306979935723723e-01
5.885927951360010041e-02
2.238807626081838476e-01
3.112268195572983221e-03
-2.143769902571169284e-01
-2.312161948347724386e-02
1.582960434105254166e-01
-5.919321504219820368e-02
-2.843340240679525510e-01
-9.635788925415464390e-02
1.025490320925157711e-01
-9.307865329431741497e-02
-2.952648106008956552e-01
-9.635788925420443740e-02
1.036421107458100760e-01
-7.012400157517811872e-02
-1.859569452714649462e-01
1.790979313760021063e-01
5.124535270778809437e-01
5.999332128942818088e-01
7.212983369628098718e-01
8.546205391118341099e-01
6.742291677654383975e-01
1.124201335250252370e-01
-3.411741140392565708e-01
-3.772791031508088144e-01
-2.767492606006087819e-01
-3.772791031508199722e-01
-4.253411703429181845e-01
-1.127540690535908108e-01
1.320621557314620720e-01
-4.607627120264064929e-02
-2.340524060164144438e-01
-4.061087793617086661e-02
1.670406726368798833e-01
-1.219083295055829221e-02
-2.154700689104112332e-01
-4.539282377463047316e-03
1.976468749291204752e-01
1.076381876867194345e-02
-1.826777093115820039e-01
1.841536934175856330e-02
2.162292120351236857e-01
1.841536934169092990e-02
-1.695607654720503454e-01
3.699770644771199074e-02
2.282530772213610670e-01
3.262539183456670405e-02
-1.455130350995755828e-01
5.011465028728483845e-02
2.512077289405414970e-01
6.979006604653198442e-02
-1.203722260738065153e-01
9.274471776571303894e-02
3.102339762184340710e-01
1.277232346711345556e-01
-4.713595630308795026e-02
1.627017515765898370e-01
3.933079538688014631e-01
2.129833696280948319e-01
3.156570673410216687e-02
2.534272798000130056e-01
4.851265607455232387e-01
3.080812124647038241e-01
1.496182012898872871e-01
4.009928979947401384e-01
6.414368081666090848e-01
4.862530329516347449e-01
3.103007633241504082e-01
5.452792802295843844e-01
7.605823813756886764e-01
5.758854825218175932e-01
3.693270106020430377e-01
5.474654375361230896e-01
7.190453925505049249e-01
4.786014823785831873e-01
2.250406283671945173e-01
3.682005383958980027e-01
5.102673697712922785e-01
2.490549651868285141e-01
-1.652975401084735840e-02
1.386540212040892062e-01
2.905585604591365834e-01
5.885927951357793758e-02
-1.772123160451104795e-01
-5.632361030763625813e-03
1.746922232099400452e-01
-4.389011389608261232e-02
-2.537278217757119592e-01
-6.028629369548328676e-02
1.342483130380506817e-01
-7.121708022843598052e-02
-2.832409454146582739e-01
-7.449631618826811630e-02
1.200382905452246768e-01
-7.996170945478611736e-02
-2.777755521481867218e-01
-6.903092292184637158e-02
1.386206276512279012e-01
-6.247245100211837321e-02
-2.591932150421835113e-01
-5.919321504215644542e-02
1.418998636111108158e-01
-5.700705773559704148e-02
-2.493555071625347397e-01
-4.061087793620301450e-02
1.528306501440538923e-01
-5.482090042904960020e-02
-2.570070577355949015e-01
-6.793784426851952329e-02
1.255036838116962150e-01
-6.247245100205996160e-02
-2.679378442685379502e-01
-7.121708022840676777e-02
1.276898411182848248e-01
-7.012400157516125720e-02
-2.679378442685379502e-01
-7.012400157511675114e-02
1.331552343847563491e-01
-6.137937234880249532e-02
-2.548209004290062918e-01
-5.372782177570646633e-02
1.298759984248734622e-01
-7.231015888169578520e-02
-2.755893948415981121e-01
-7.231015888166852923e-02
1.145728972787531386e-01
-7.558939484161986133e-02
-2.788686308014810544e-01
-8.433402406795569017e-02
1.156659759320474573e-01
-7.449631618827577684e-02
-2.788686308014810544e-01
-9.307865329426899537e-02
1.047351893991043809e-01
-9.745096790749738225e-02
-2.974509679074842650e-01
-9.854404656079029934e-02
1.123867399721645288e-01
-9.745096790749306626e-02
-2.974509679074842650e-01
-1.007302038673377614e-01
9.708363882604423289e-02
-1.083817544404318267e-01
-2.974509679074842650e-01
-9.854404656079893132e-02
9.489748151945562316e-02
-9.635788925419012940e-02
-2.832409454146582739e-01
-7.777555214816593565e-02
1.233175265051076053e-01
-7.886863080147692162e-02
-2.854271027212468836e-01
-7.777555214817025164e-02
1.298759984248734622e-01
-6.137937234876368608e-02
-2.417039565894746056e-01
-2.312161948345920967e-02
2.096707401153578565e-01
3.262539183450555158e-02
-1.673746081654617357e-01
5.120772894054935465e-02
2.807208525794878118e-01
1.047685829519795914e-01
-9.632449570133176653e-02
9.602395372565709908e-02
2.785346952728992020e-01
6.541775143334338516e-02
-1.509784283660471071e-01
2.934615587465459058e-02
2.031122681955919995e-01
-8.911596990619703382e-03
-2.242146981367656999e-01
-3.733164197625697678e-02
1.418998636111108158e-01
-8.870633868114527476e-02
-3.040094398272500942e-01
-9.635788925419934425e-02
1.014559534392214663e-01
-1.051025184805555596e-01
-3.138471477068988658e-01
-9.089249598773210814e-02
1.812506951297058744e-01
1.244439987112532092e-01
6.435806633293134071e-02
4.993699767912347931e-01
1.069923640257977482e+00
9.333222021490447107e-01
3.616754600289828203e-01
1.583294369633612420e-01
1.014559534392214663e-01
-2.778089457010886609e-01
-6.701907886808429193e-01
-4.395845863885834981e-01
-1.259044064459943768e-01
-1.805249455578455120e-01
-3.061955971338387039e-01
-8.214786676139490540e-02
1.233175265051076053e-01
-6.684476561527874505e-02
-2.559139790823005689e-01
-4.935550716252453535e-02
1.539237287973481971e-01
-3.951779928287127430e-02
-2.285870127499429194e-01
-1.437699025711102613e-02
1.779714591698229598e-01
-2.421469813679214336e-02
-2.187493048702941478e-01
-7.818518337349495556e-03
1.889022457027660085e-01
-1.260046417607381961e-03
-1.979808104577023276e-01
9.261108890006481157e-04
2.085776614620635516e-01
1.404305472851723018e-02
-1.815846306582877268e-01
2.497384126151656544e-02
2.380907851010098386e-01
4.464925702076213976e-02
-1.455130350995755828e-01
6.760390873994474858e-02
2.807208525794878118e-01
9.055856045908186602e-02
-9.523141704803746166e-02
1.288163133244671077e-01
3.517709650436177671e-01
1.944010325220908164e-01
1.626260558798187095e-02
2.359380213472594134e-01
4.545203584532826468e-01
3.004296618916428852e-01
1.321289428371784092e-01
3.682005383959117140e-01
6.097375272210742159e-01
4.348783362468470193e-01
2.458091227797863376e-01
4.567399093127462728e-01
6.512745160462578564e-01
4.414368081666171784e-01
2.108306058743685263e-01
3.714797743557859966e-01
5.211981563042353827e-01
2.588926730664267151e-01
-1.226652864727062475e-03
1.528640436969203042e-01
3.047685829519625744e-01
4.137002106090940240e-02
-1.892361812313478608e-01
-3.405240601636504161e-02
1.298759984248734622e-01
-1.040094398272745913e-01
-3.269640915464305797e-01
-1.488256646123170546e-01
3.587123424156304918e-02
-1.761526309446490579e-01
-3.892695747842060405e-01
-2.023865186236969427e-01
-7.851911890209228861e-03
-2.078519118902251162e-01
-4.176896197698580226e-01
-2.089449905435125932e-01
1.985795989439514964e-03
-1.991072826638208837e-01
-3.947349680506775926e-01
-1.980142040105283552e-01
9.637346562499676805e-03
-1.805249455578588347e-01
-3.706872376782028300e-01
-1.674080017183375291e-01
3.368507693497441169e-02
-1.499187432655684493e-01
-3.455464286524337902e-01
-1.302433275062899187e-01
6.538435788050933617e-02
-1.335225634661950100e-01
-3.444533499991394576e-01
-1.280571701997511025e-01
6.319820057392072643e-02
-1.346156421195304764e-01
-3.433602713458451250e-01
-1.411741140392416272e-01
5.554665000086056459e-02
-1.368017994260692927e-01
-3.313364061596077992e-01
-1.214986982799029364e-01
7.522206576015809387e-02
-1.204056196266958673e-01
-3.193125409733703624e-01
-1.269640915464242681e-01
7.303590845356947026e-02
-1.160333050135597954e-01
-3.258710128931362471e-01
-1.335225634661489358e-01
7.194282980027516539e-02
-1.193125409733929304e-01
-3.171263836667818081e-01
-1.214986982799613480e-01
7.959438037333531335e-02
-1.269640915464942399e-01
-3.214986982799590276e-01
-1.258710128930974337e-01
8.943208825298408493e-02
-1.083817544404412359e-01
-3.105679117470159234e-01
-1.204056196266756751e-01
7.412898710686377513e-02
-1.193125409734254599e-01
-3.236848555865476373e-01
-1.182194623200458761e-01
6.866359384039225078e-02
-1.269640915464358422e-01
-3.313364061596077992e-01
-1.302433275063330509e-01
7.631514441345239874e-02
-1.193125409734168418e-01
-3.378948780793736284e-01
-1.313364061595861942e-01
6.975667249368655565e-02
-1.182194623200727435e-01
-3.018232825206614844e-01
-7.886863080150924299e-02
1.506444928374652825e-01
-3.951779928292380867e-02
-2.296800914032372243e-01
-1.437699025710396927e-02
2.031122681955919995e-01
3.153231318125593319e-02
-1.564438216325186592e-01
3.262539183450144376e-02
2.096707401153578565e-01
-1.669677643201318324e-04
-2.176562262169998430e-01
-4.170395658947027157e-02
1.418998636111108158e-01
-7.449631618828321533e-02
-2.941717319476013226e-01
-1.051025184804989104e-01
8.178053767992393697e-02
-1.444533499991600412e-01
-3.575702938386711160e-01
-1.564772151853811299e-01
4.680202077450609788e-02
-1.542910578787590192e-01
-3.477325859590223445e-01
-1.510118219188684163e-01
9.380440286616130441e-02
2.715999856805479187e-02
-1.434359670425874866e-02
3.736659316623491267e-01
9.103341568770086933e-01
9.355083594555827498e-01
4.469355949859388777e-01
2.195418415478930241e-01
9.052516690627838980e-02
-3.259044064459977186e-01
-7.324962719186185467e-01
-5.292170359586660933e-01
-1.991406762167129973e-01
-2.362719568759057143e-01
-3.531979792254938966e-01
-1.225917769332336982e-01
9.926979613263284263e-02
-9.963712521406757616e-02
-2.843340240679525510e-01
-7.340323753494872039e-02
1.287829197715791296e-01
-5.263474312245353115e-02
-2.449831925493575202e-01
-4.826242850922944638e-02
1.637614366769969687e-01
-2.749393409663468402e-02
-2.078185183373510714e-01
-1.000467564388753811e-02
2.052984255021806370e-01
1.185689742191920436e-02
-1.804915520049933941e-01
2.060152664830327413e-02
2.359046277944212289e-01
4.246309971420959145e-02
-1.531645856726357446e-01
5.995235816684853919e-02
2.730693020064276499e-01
7.197622335311472386e-02
-1.039760462743919145e-01
1.200716840980765726e-01
3.222578414046715078e-01
1.506778863903546206e-01
-2.308822593061318762e-02
1.954941111753339678e-01
4.129833696280989508e-01
2.468688078802124819e-01
7.638193151916872203e-02
3.037088978515115612e-01
5.365012574503555953e-01
3.638282237827530907e-01
1.998998193414254221e-01
4.381575722067524437e-01
6.818807183384985038e-01
4.949976621780287633e-01
3.321623363900366166e-01
5.452792802295447494e-01
7.529308308026283481e-01
5.321623363899941062e-01
3.135799992840334061e-01
4.818807183385161452e-01
6.228544710606058743e-01
3.780382462755465522e-01
1.332220214904726863e-01
2.698234595994616902e-01
4.129833696280989508e-01
1.605155942699383054e-01
-7.992831590191716573e-02
7.744161661961389276e-02
2.348115491411269240e-01
2.060152664822583607e-02
-1.979808104577023276e-01
-2.312161948342118106e-02
1.735991445566457125e-01
-3.623856332302834160e-02
-2.417039565894746056e-01
-4.170395658947419204e-02
1.473652568775823402e-01
-5.263474312248411086e-02
-2.471693498559461299e-01
-4.826242850919886668e-02
1.451790995709937304e-01
-5.263474312243432429e-02
-2.559139790823005689e-01
-5.482090042901450327e-02
1.582960434105254166e-01
-4.170395658944146822e-02
-2.438901138960632153e-01
-4.716934985591317991e-02
1.615752793704083312e-01
-2.968009140324525189e-02
-2.318662487098258340e-01
-4.607627120266866161e-02
1.528306501440538923e-01
-4.607627120261006959e-02
-2.515416644691233494e-01
-6.028629369545349115e-02
1.451790995709937304e-01
-6.028629369547722217e-02
-2.591932150421835113e-01
-5.154166446914882488e-02
1.473652568775823402e-01
-5.263474312236728764e-02
-2.482624285092404348e-01
-5.154166446910766336e-02
1.462721782242880630e-01
-5.044858581581983248e-02
-2.438901138960632153e-01
-4.716934985598021657e-02
1.615752793704083312e-01
-3.951779928291792449e-02
-2.493555071625347397e-01
-5.044858581582197660e-02
1.604822007171140541e-01
-4.826242850922259769e-02
-2.526347431224176820e-01
-4.389011389601497892e-02
1.604822007171140541e-01
-3.842472062961499457e-02
-2.449831925493575202e-01
-4.498319254935907036e-02
1.582960434105254166e-01
-4.170395658953908458e-02
-2.406108779361803007e-01
-3.951779928284637061e-02
1.582960434105254166e-01
-4.170395658948929801e-02
-2.427970352427689105e-01
-4.826242850915966887e-02
1.462721782242880630e-01
-5.263474312247352904e-02
-2.602862936954778439e-01
-6.028629369544682981e-02
1.550168074506425020e-01
-5.810013638889528070e-02
-2.581001363888891786e-01
-4.716934985596493018e-02
1.506444928374652825e-01
-5.700705773564213041e-02
-2.515416644691233494e-01
-2.858701274992054772e-02
1.965537962758261703e-01
1.513613338183191978e-02
-1.597230575924015739e-01
4.246309971415961754e-02
2.457423356740700005e-01
7.197622335309472597e-02
-9.304525974144883804e-02
1.146062908316250462e-01
3.036755042986682418e-01
9.711703237891357310e-02
-1.247445406869837486e-01
5.667312220697698355e-02
2.293461558746553719e-01
1.185689742191646003e-02
-2.056323610307624616e-01
-1.984238352358334151e-02
1.582960434105254166e-01
-5.919321504216371044e-02
-2.897994173344241031e-01
-9.307865329435170698e-02
1.025490320925157711e-01
-8.870633868115115894e-02
-2.876132600278354934e-01
-8.433402406795607875e-02
1.102005826655759191e-01
-3.186624870979740815e-02
-1.072552822342748291e-01
2.293795494275511770e-01
5.933413474216595596e-01
7.300095726362934023e-01
7.890692134670569402e-01
7.245441793698225164e-01
5.528974372497702516e-01
4.027694240754452898e-02
-3.991072826638548121e-01
-4.166299346693928540e-01
-2.373984290820136955e-01
-3.291836424058814381e-01
-3.772457095979686592e-01
-8.761326002776530231e-02
1.418998636111108158e-01
-4.935550716258001874e-02
-2.329593273631201389e-01
-3.186624870980542951e-02
1.812506951297058744e-01
-8.911596990731823764e-03
-2.045392823774681568e-01
-1.260046417523672663e-03
2.140430547285350760e-01
1.622921203508702337e-02
-1.793984733516990893e-01
3.153231318125575278e-02
2.391838637543041435e-01
5.339388624714325182e-02
-1.455130350995755828e-01
5.667312220706597486e-02
2.730693020064276499e-01
7.197622335310531472e-02
-1.313030126067495917e-01
8.290700988607954680e-02
2.818139312327820889e-01
9.274471776574692850e-02
-8.757986647497731370e-02
1.255370773645077265e-01
3.473986504304405476e-01
1.605155942700437488e-01
-1.980898997073027301e-02
1.823771673359438072e-01
4.075179763616274542e-01
2.326587853873359202e-01
5.670651575987123438e-02
2.807542461323817018e-01
5.179189203443523848e-01
3.518043585964651943e-01
1.867828755018937636e-01
4.326921789402405349e-01
6.687637744989667343e-01
4.971838194846577852e-01
3.299761790834479513e-01
5.540239094558588873e-01
7.704200892553374480e-01
5.671408532954522741e-01
3.583962240690999335e-01
5.420000442697535670e-01
7.026492127510903796e-01
4.490883587396259924e-01
1.922482687683652602e-01
3.277566282240196305e-01
4.731026955592858574e-01
2.228210775077541783e-01
-3.073977650367334946e-02
1.277232346711116295e-01
2.949308750723138028e-01
6.651083008662711515e-02
-1.662815295121674031e-01
1.622921203513349314e-02
1.998330322357090849e-01
-1.874930487027905504e-02
-2.285870127499429194e-01
-3.951779928292595279e-02
1.539237287973481971e-01
-5.154166446914942856e-02
-2.515416644691233494e-01
-6.137937234877092335e-02
1.375275489979335963e-01
-5.263474312248489495e-02
-2.515416644691233494e-01
-6.903092292178991674e-02
1.484583355308766728e-01
-4.716934985596357016e-02
-2.438901138960632153e-01
-4.826242850924786915e-02
1.735991445566457125e-01
-2.968009140320487446e-02
-2.362385633230030535e-01
-4.061087793623750775e-02
1.648545153302912736e-01
-3.623856332310282369e-02
-2.449831925493575202e-01
-4.170395658939970301e-02
1.484583355308766728e-01
-4.716934985599610664e-02
-2.570070577355949015e-01
-4.716934985592102086e-02
1.550168074506425020e-01
-4.607627120265201520e-02
-2.438901138960632153e-01
-5.700705773561957207e-02
1.484583355308766728e-01
-5.044858581577945505e-02
-2.449831925493575202e-01
-5.044858581590351554e-02
1.484583355308766728e-01
-5.700705773567741469e-02
-2.581001363888891786e-01
-5.154166446906571775e-02
1.506444928374652825e-01
-6.465860830868777609e-02
-2.646586083086550634e-01
-5.919321504217565227e-02
1.342483130380506817e-01
-6.793784426852091107e-02
-2.635655296553607307e-01
-6.903092292187419654e-02
1.309690770781677394e-01
-5.810013638891331489e-02
-2.679378442685379502e-01
-8.105478810807041634e-02
1.178521332386360670e-01
-7.777555214816105067e-02
-2.701240015751265600e-01
-6.247245100202603735e-02
1.408067849578165109e-01
-5.044858581584453494e-02
-2.504485858158290723e-01
-4.607627120266121618e-02
1.615752793704083312e-01
-4.061087793623693876e-02
-2.351454846697087486e-01
-1.765622621696806907e-02
2.009261108890033898e-01
5.298425502173746866e-03
-1.695607654720503454e-01
5.011465028722917464e-02
2.533938862471301068e-01
8.072085257953072468e-02
-9.851065300792037627e-02
1.135132121783401504e-01
3.200716840980828426e-01
1.222578414045822764e-01
-1.006968103145089860e-01
8.618624584602363470e-02
2.610454368201902686e-01
4.027694240755903127e-02
-1.892361812313478608e-01
-1.260046417570714894e-03
1.921814816626489508e-01
-2.421469813675529437e-02
-2.679378442685379502e-01
-7.558939484163337830e-02
1.233175265051076053e-01
-7.668247349483223174e-02
-2.701240015751265600e-01
-7.886863080138419024e-02
1.178521332386360670e-01
-5.591397908237252107e-02
-1.575369002858129641e-01
1.900287179089655554e-01
5.288497068772954890e-01
6.053986061607329328e-01
7.628353257879936233e-01
8.655513256447974202e-01
6.775084037253212843e-01
9.383779641904711755e-02
-3.214986982799590276e-01
-3.259044064460469015e-01
-2.669115527209600103e-01
-4.089783840963752692e-01
-4.799951030076335390e-01
-1.455464286523541761e-01
9.926979613263284263e-02
-8.105478810812433155e-02
-2.734032375350095023e-01
-7.777555214815692897e-02
1.375275489979335963e-01
-5.263474312242256287e-02
-2.438901138960632153e-01
-3.733164197631734516e-02
1.670406726368798833e-01
-2.640085544340035895e-02
-2.231216194834713673e-01
-2.421469813674449745e-02
1.812506951297058744e-01
-8.911596990641658042e-03
-2.078185183373510714e-01
-6.725439684085372273e-03
1.976468749291204752e-01
-2.353125070916979936e-03
-2.001669677642909373e-01
6.391504155487474567e-03
2.118568974219464662e-01
2.497384126139953406e-02
-1.695607654720503454e-01
4.683541432741799432e-02
2.555800435537187720e-01
6.869698739322159520e-02
-1.247445406869837486e-01
8.181393123278603297e-02
2.982101110321967452e-01
1.266301560178696439e-01
-3.729824842343917868e-02
1.900287179088726575e-01
4.228210775077477224e-01
2.556134371064657795e-01
9.387118997187765546e-02
3.310358641839703520e-01
5.703866957024792406e-01
4.031790553012470357e-01
2.392506508600205084e-01
4.720430104588861919e-01
6.884391902582642775e-01
4.960907408313129374e-01
2.949976621780301400e-01
4.851599542983680569e-01
6.545537520061408543e-01
4.141098418342896159e-01
1.692936170491848302e-01
3.080812124646405414e-01
4.610788303730484761e-01
2.173556842411822898e-01
-4.167056303661642591e-02
1.080478189119144783e-01
2.697900660465447631e-01
4.355617836743724824e-02
-1.990738891109966324e-01
-2.421469813674645769e-02
1.604822007171140541e-01
-4.935550716252905951e-02
-2.624724510020664536e-01
-7.668247349492297860e-02
1.156659759320474573e-01
-9.745096790751972549e-02
-2.996371252140728747e-01
-1.007302038673565797e-01
8.943208825298408493e-02
-1.160333050134731564e-01
-3.105679117470159234e-01
-1.127540690535527856e-01
9.489748151945562316e-02
-9.745096790751110738e-02
-3.072886757871330365e-01
-1.094748330937196507e-01
9.708363882604423289e-02
-9.526481060087270414e-02
-3.007302038673671518e-01
-9.745096790744110782e-02
1.058282680523986857e-01
-1.094748330937398567e-01
-3.138471477068988658e-01
-1.105679117470225875e-01
8.943208825298408493e-02
-1.236848555865160681e-01
-3.214986982799590276e-01
-1.258710128931017358e-01
7.084975114698086052e-02
-1.280571701997344491e-01
-3.302433275063134666e-01
-1.247779342397662555e-01
8.068745902662963210e-02
-1.171263836668325481e-01
-3.127540690536045331e-01
-1.127540690535786538e-01
9.708363882604423289e-02
-1.083817544404283018e-01
-3.061955971338387039e-01
-1.149402263602170710e-01
9.599056017274992803e-02
-1.116609904002614367e-01
-3.171263836667818081e-01
-1.094748330936134162e-01
8.615285229310115644e-02
-1.083817544405106248e-01
-3.029163611739558171e-01
-9.635788925413150963e-02
9.708363882604423289e-02
-9.963712521410639233e-02
-2.941717319476013226e-01
-1.007302038673585365e-01
9.052516690627838980e-02
-1.061955971338224419e-01
-3.061955971338387039e-01
-1.072886757871741592e-01
9.271132421286699954e-02
-1.072886757870669672e-01
-3.007302038673671518e-01
-1.029163611739557643e-01
1.025490320925157711e-01
-9.635788925425599338e-02
-2.766824734948923892e-01
-4.935550716249356706e-02
1.593891220638197215e-01
-1.219083295054457401e-02
-2.045392823774681568e-01
1.076381876864353389e-02
2.162292120351236857e-01
5.339388624716363135e-02
-1.422337991396926682e-01
3.809078510104237092e-02
2.260669199147724573e-01
1.841536934170464462e-02
-2.034462037241738519e-01
-4.061087793619752584e-02
1.528306501440538923e-01
-6.356552965540954170e-02
-2.810547881080696642e-01
-8.870633868110586184e-02
9.161824555957269467e-02
-1.433602713458441702e-01
-3.433602713458451250e-01
-1.433602713457800548e-01
6.319820057392072643e-02
-1.389879567327081122e-01
-3.422671926925508479e-01
-1.455464286524184581e-01
9.926979613263284263e-02
4.137002106090234554e-02
-2.199514727731888275e-02
3.496182012898528257e-01
8.786348759314737134e-01
9.519045392550189444e-01
5.037756849572427864e-01
3.058950551582126920e-01
1.790645378231172646e-01
-2.526681366753485425e-01
-6.789354179071973583e-01
-4.898662044400926008e-01
-1.685344739244723500e-01
-2.133173051567037459e-01
-3.357087207727850187e-01
-9.417173194760328214e-02
1.145728972787531386e-01
-8.761326002780864264e-02
-2.766824734948923892e-01
-7.558939484164983735e-02
1.364344703446392915e-01
-5.810013638881256215e-02
-2.581001363888891786e-01
-4.935550716245436231e-02
1.561098861039368069e-01
-2.858701274999838129e-02
-2.231216194834713673e-01
-2.312161948344077997e-02
1.921814816626489508e-01
3.112268195586308499e-03
-1.957946531511136901e-01
2.388076260816463306e-02
2.304392345279496768e-01
2.934615587469946094e-02
-1.564438216325186592e-01
5.339388624715208503e-02
2.632315941267788784e-01
6.541775143337043297e-02
-1.149068328073349771e-01
1.069547402586143031e-01
3.124201335250227363e-01
1.244439987112218454e-01
-4.713595630308795026e-02
1.714463808029286218e-01
3.867494819490355784e-01
2.261003134676421722e-01
5.889267306645984412e-02
2.796611674791061875e-01
5.179189203443523848e-01
3.550835945563292628e-01
1.813174822354222115e-01
4.173890777941390851e-01
6.556468306594351869e-01
4.786014823786357564e-01
3.048353700576788561e-01
5.212315498571393757e-01
7.223246285103879227e-01
5.059284487109522166e-01
2.818807183384984816e-01
4.512745160463449423e-01
5.944344260749538922e-01
3.507112799431195138e-01
9.933658323834920756e-02
2.293795494275507885e-01
3.801910100292697492e-01
1.353747852441908039e-01
-1.028829676210976096e-01
5.667312220700050640e-02
2.293461558746553719e-01
6.391504155512352237e-03
-2.209354621768827576e-01
-3.733164197635968629e-02
1.539237287973481971e-01
-6.028629369557248624e-02
-2.668447656152436731e-01
-7.340323753493969983e-02
1.178521332386360670e-01
-9.417173194764622002e-02
-2.919855746410127129e-01
-9.307865329428702261e-02
1.080144253589872955e-01
-9.307865329430213552e-02
-2.887063386811298260e-01
-8.433402406798233553e-02
1.178521332386360670e-01
-7.231015888166050787e-02
-2.777755521481867218e-01
-7.558939484158672117e-02
1.309690770781677394e-01
-6.903092292190969592e-02
-2.744963161883038349e-01
-7.996170945472279301e-02
1.244106051584019101e-01
-8.433402406798019835e-02
-3.007302038673671518e-01
-8.979941733442134422e-02
1.058282680523986857e-01
-9.417173194757919030e-02
-2.930786532943070455e-01
-9.089249598767448757e-02
1.036421107458100760e-01
-9.635788925420896156e-02
-2.876132600278354934e-01
-8.979941733442996232e-02
1.145728972787531386e-01
-7.449631618836398406e-02
-2.701240015751265600e-01
-6.575168696191405204e-02
1.397137063045222061e-01
-6.247245100207681617e-02
-2.668447656152436731e-01
-6.793784426855245528e-02
1.320621557314620720e-01
-7.668247349494396181e-02
-2.635655296553607307e-01
-5.810013638886252912e-02
1.353413916913449588e-01
-6.028629369547957445e-02
-2.613793723487721210e-01
-6.028629369550092543e-02
1.320621557314620720e-01
-6.903092292178424072e-02
-2.712170802284208926e-01
-6.903092292181421674e-02
1.222244478518132865e-01
-8.105478810815373858e-02
-2.734032375350095023e-01
-7.558939484153889832e-02
1.233175265051076053e-01
-7.449631618833810198e-02
-2.777755521481867218e-01
-7.558939484158867794e-02
1.309690770781677394e-01
-6.903092292181678413e-02
-2.668447656152436731e-01
-6.684476561528401861e-02
1.375275489979335963e-01
-5.154166446905809190e-02
-2.187493048702941478e-01
-2.353125070787792043e-03
2.107638187686521614e-01
1.950844799493975726e-02
-1.684676868187560128e-01
4.902157163399484957e-02
2.697900660465447631e-01
1.058616616052397985e-01
-1.061622035809805242e-01
7.853469527289136387e-02
2.708831446998390402e-01
5.667312220704576881e-02
-1.651884508588730982e-01
1.294997607518314463e-02
1.921814816626489508e-01
-2.530777679006841752e-02
-2.417039565894746056e-01
-5.044858581575454443e-02
1.276898411182848248e-01
-9.635788925423953433e-02
-2.963578892541899323e-01
-9.089249598769369443e-02
1.123867399721645288e-01
-9.089249598771821648e-02
-3.083817544404273137e-01
-9.854404656080362201e-02
1.899953243560603133e-01
1.506778863902824839e-01
8.075424613234599702e-02
5.234177071636982870e-01
1.067737482951388817e+00
9.103675504298756049e-01
3.540239094559227140e-01
1.714463808028815761e-01
1.189452118919303719e-01
-3.106013052999064827e-01
-6.844008111736690214e-01
-4.231884065891802771e-01
-9.639128280704811758e-02
-1.706872376782763434e-01
-3.061955971338387039e-01
-8.652018137449256352e-02
1.156659759320474573e-01
-7.886863080150476046e-02
-2.679378442685379502e-01
-6.793784426853911873e-02
1.408067849578165109e-01
-4.498319254933144662e-02
-2.449831925493575202e-01
-4.061087793623123499e-02
1.703199085967627979e-01
-2.858701275004895195e-02
-2.242146981367656999e-01
-1.437699025703575474e-02
1.823437737830001792e-01
-2.093546217693901743e-02
-2.110977542972340137e-01
-6.725439684025391607e-03
1.976468749291204752e-01
4.205346848879830575e-03
-1.815846306582877268e-01
2.825307722134264704e-02
2.315323131812440094e-01
4.464925702081898318e-02
-1.433268777929869731e-01
7.306930200635944339e-02
2.829070098860764215e-01
1.135132121782282122e-01
-6.243905744920824619e-02
1.495848077370930673e-01
3.769117740693868068e-01
2.162626055879428577e-01
4.577572922692815793e-02
2.796611674790657753e-01
5.168258416910580522e-01
3.518043585964867326e-01
1.824105608887165442e-01
4.119236845276271763e-01
6.425298868199034175e-01
4.818807183384681281e-01
3.048353700576788561e-01
5.245107858169819615e-01
7.288831004301536964e-01
5.059284487109926287e-01
2.895322689115585879e-01
4.458091227798330336e-01
5.856897968485994532e-01
3.354081787970395467e-01
8.184732478564027414e-02
2.173556842412730505e-01
3.725394594562095874e-01
1.233509200579028520e-01
-1.181860687672179056e-01
4.792849298069661729e-02
2.304392345279496768e-01
2.019189542284552125e-03
-2.198423835235884527e-01
-3.623856332301480382e-02
1.539237287973481971e-01
-5.154166446908670790e-02
-2.734032375350095023e-01
-7.231015888168577932e-02
1.189452118919303719e-01
-8.761326002793094758e-02
-2.821478667613639413e-01
-8.652018137447060886e-02
1.112936613188702240e-01
-8.433402406799823947e-02
-2.963578892541899323e-01
-9.198557464099192671e-02
1.069213467056929906e-01
-8.652018137453706959e-02
-2.876132600278354934e-01
-8.542710272127587712e-02
1.112936613188702240e-01
-8.652018137448728996e-02
-2.865201813745411608e-01
-8.105478810796652722e-02
1.211313691985189817e-01
-8.542710272132508775e-02
-2.952648106008956552e-01
-8.761326002778216382e-02
1.189452118919303719e-01
-8.652018137456961300e-02
-2.810547881080696642e-01
-9.635788925418639628e-02
1.047351893991043809e-01
-1.029163611739344203e-01
-2.974509679074842650e-01
-1.018232825207077280e-01
1.025490320925157711e-01
-1.029163611739755818e-01
-3.051025184805443713e-01
-1.040094398272551762e-01
9.271132421286699954e-02
-1.193125409734313441e-01
-3.225917769332533047e-01
-1.138471477068627724e-01
8.287361633321824184e-02
-1.193125409733815645e-01
-3.236848555865476373e-01
-1.236848555865613236e-01
6.319820057392072643e-02
-1.346156421195430219e-01
-3.444533499991394576e-01
-1.346156421194632247e-01
5.008125673438904024e-02
-1.400810353859647805e-01
-3.357087207727850187e-01
-1.564772151853991711e-01
4.680202077450609788e-02
-1.531979792255376283e-01
-3.652218444117312779e-01
-1.772457095979498298e-01
3.259199828168010682e-02
-1.706872376782876954e-01
-3.805249455578516016e-01
-1.750595522913200586e-01
2.056813309544275326e-02
-1.783387882512980360e-01
-3.761526309446743266e-01
-1.816180242111356813e-01
2.275429040203136299e-02
-1.521049005721849257e-01
-3.280571701997248568e-01
-1.040094398272896625e-01
1.145728972787531386e-01
-7.012400157515302768e-02
-2.581001363888891786e-01
-3.186624870973329277e-02
2.020191895422976947e-01
-3.446203724241474631e-03
-2.220285408301770624e-01
-4.716934985590338220e-02
1.550168074506425020e-01
-7.121708022843872832e-02
-2.996371252140728747e-01
-1.324294848129091151e-01
6.101204326733208894e-02
-1.641287657584050153e-01
-3.816180242111458787e-01
-2.045726759303831688e-01
-3.736503552915554360e-02
-2.417373501423419890e-01
-4.482958220620986145e-01
-2.504819793686119400e-01
-4.392350744892137282e-02
-2.515750580220319499e-01
-4.450165861022157276e-01
-1.761526309446488636e-01
1.746922232099400452e-01
1.178855267914936389e-01
1.419666507168271807e-01
7.026826063039242065e-01
1.036038202005854059e+00
4.895322689116077819e-01
-1.302099339534552869e-01
-2.056657545836037548e-01
-2.067922267897731037e-01
-5.969879124629745570e-01
-7.762194180503907415e-01
-4.548876875346646309e-01
-1.138805412597569955e-01
-2.340857995693057525e-01
-3.991072826638548121e-01
-1.903626534374920909e-01
4.171953296028124702e-03
-1.772457095979519948e-01
-3.553841365320825618e-01
-1.564772151853274229e-01
5.336049269427195485e-02
-1.302433275063379636e-01
-3.160333050134874755e-01
-1.072886757871334001e-01
9.817671747933853776e-02
-9.526481060087035879e-02
-3.040094398272500942e-01
-8.870633868108900033e-02
1.156659759320474573e-01
-7.340323753502538129e-02
-2.701240015751265600e-01
-6.247245100198448031e-02
1.528306501440538923e-01
-3.951779928294302247e-02
-2.318662487098258340e-01
-3.623856332297089450e-02
1.746922232099400452e-01
-3.446203724181103219e-03
-1.859569452714649462e-01
1.950844799498897483e-02
2.446492570207756678e-01
6.869698739329294090e-02
-1.105345181941577576e-01
1.135132121782495979e-01
3.517709650436177671e-01
1.823771673357687528e-01
2.282107750774770016e-02
2.610788303731131355e-01
5.026158191982321721e-01
3.365012574503158382e-01
1.671074597425962205e-01
4.009928979947346983e-01
6.283198643270774264e-01
4.501814373929735602e-01
2.622053025792009384e-01
4.632983812324604211e-01
6.469022014330806369e-01
4.261337070205485911e-01
1.758520889689506594e-01
3.299427855305960833e-01
4.665442236395200282e-01
2.118902909747323038e-01
-4.932211360967656000e-02
9.821011103224415451e-02
2.533938862471301068e-01
1.622921203510113361e-02
-2.307731700565315291e-01
-5.810013638889154064e-02
1.222244478518132865e-01
-1.116609904002829889e-01
-3.160333050134874755e-01
-1.214986982799201864e-01
6.319820057392072643e-02
-1.477325859590362944e-01
-3.466395073057280674e-01
-1.455464286524447148e-01
4.242970616132887840e-02
-1.619426084519034470e-01
-3.597564511452597813e-01
-1.641287657584067639e-01
3.149891962838580195e-02
-1.564772151853821291e-01
-3.597564511452597813e-01
-1.542910578787168585e-01
3.915047020144596379e-02
-1.455464286524802142e-01
-3.455464286524337902e-01
-1.368017994260577186e-01
6.647743653380364104e-02
-1.357087207727816491e-01
-3.411741140392565708e-01
-1.477325859590505885e-01
4.570894212121179301e-02
-1.564772151853237314e-01
-3.553841365320825618e-01
-1.564772151852729387e-01
3.259199828168010682e-02
-1.575702938387501251e-01
-3.553841365320825618e-01
-1.521049005721455127e-01
4.242970616132887840e-02
-1.575702938387003593e-01
-3.553841365320825618e-01
-1.510118219189009459e-01
5.445357134756625972e-02
-1.411741140392359650e-01
-3.444533499991394576e-01
-1.357087207728304434e-01
5.226741404097764998e-02
-1.488256646122463056e-01
-3.422671926925508479e-01
-1.422671926924641839e-01
5.226741404097764998e-02
-1.488256646123784221e-01
-3.400810353859622381e-01
-1.411741140392196725e-01
5.663972865415486946e-02
-1.433602713458571043e-01
-3.368017994260792958e-01
-1.400810353859751611e-01
5.773280730744917433e-02
-1.335225634661585392e-01
-3.291502488530191339e-01
-1.357087207727567524e-01
7.740822306674670361e-02
-1.313364061596110910e-01
-3.357087207727850187e-01
-1.368017994260098957e-01
7.959438037333531335e-02
-1.236848555865921184e-01
-3.269640915464305797e-01
-1.225917769332336982e-01
7.959438037333531335e-02
-1.214986982799537152e-01
-3.204056196266646950e-01
-1.280571701996640610e-01
6.975667249368655565e-02
-1.193125409734062531e-01
-3.225917769332533047e-01
-1.127540690535935447e-01
1.112936613188702240e-01
-6.028629369546389949e-02
-2.384247206295916910e-01
-3.514548466974754676e-02
1.779714591698229598e-01
-1.260046417612482915e-03
-1.761192373918161747e-01
4.464925702086898485e-02
2.402769424075984483e-01
2.169460530152680228e-02
-1.881431025780535560e-01
9.261108890469116730e-04
1.735991445566457125e-01
-4.935550716255336645e-02
-2.701240015751265600e-01
-7.777555214819298346e-02
1.025490320925157711e-01
-1.116609904002790754e-01
-3.236848555865476373e-01
-1.444533499991954850e-01
5.117433538768334511e-02
-1.510118219190062228e-01
-3.411741140392565708e-01
-1.422671926924747865e-01
5.117433538768334511e-02
-1.236848555865987798e-01
-2.362385633230030535e-01
1.156993694849318965e-01
4.490549651868110947e-01
5.256038644702694107e-01
6.600859323783287991e-01
8.546205391118336658e-01
6.786014823786155059e-01
9.821011103224511207e-02
-3.597564511452597813e-01
-4.035129908298725754e-01
-3.259377999988525842e-01
-4.341191931222145306e-01
-4.799951030076335390e-01
-1.597564511452009284e-01
9.052516690627838980e-02
-7.886863080151494676e-02
-2.832409454146582739e-01
-8.652018137453215685e-02
1.167590545853417622e-01
-6.028629369546193578e-02
-2.602862936954778439e-01
-5.700705773563564255e-02
1.451790995709937304e-01
-4.498319254938280831e-02
-2.395177992828859681e-01
-3.842472062959126355e-02
1.768783805165286549e-01
-1.984238352365490232e-02
-2.100046756439397089e-01
-3.446203724132276391e-03
1.987399535824147800e-01
5.298425502163943077e-03
-1.837707879648763365e-01
2.934615587464714515e-02
2.359046277944212289e-01
4.027694240754060157e-02
-1.553507429792243544e-01
5.776620086034028878e-02
2.829070098860764215e-01
9.493087507230574262e-02
-9.960373166121468114e-02
1.255370773645375360e-01
3.539571223502063768e-01
1.714463808029570158e-01
-1.215743939767011117e-02
2.304726280808321870e-01
4.567065157598712566e-01
2.851265607454328554e-01
1.168258416910580855e-01
3.518043585965414666e-01
5.889690328084824511e-01
4.261337070204482269e-01
2.567399093127293863e-01
4.829737969918084795e-01
7.059284487109731554e-01
5.124869206307482994e-01
3.146730779373276277e-01
4.949976621779960673e-01
6.731360891121440648e-01
4.239475497139592042e-01
1.649213024360076107e-01
3.190119989977447390e-01
4.643580663329313629e-01
1.976802684819055078e-01
-4.604287764979364539e-02
1.167924481382481561e-01
2.774416166196048694e-01
4.027694240757510175e-02
-1.925154171912307755e-01
-1.656314756370708477e-02
1.582960434105254166e-01
-4.716934985591966778e-02
-2.548209004290062918e-01
-7.121708022847222930e-02
1.145728972787531386e-01
-8.979941733443880247e-02
-2.865201813745411608e-01
-9.854404656069777613e-02
9.926979613263284263e-02
-1.007302038674230404e-01
-3.083817544404273137e-01
-9.635788925415895989e-02
1.069213467056929906e-01
-9.635788925419602746e-02
-2.897994173344241031e-01
-8.324094541467705333e-02
1.156659759320474573e-01
-8.652018137458843128e-02
-2.777755521481867218e-01
-7.449631618828143897e-02
1.178521332386360670e-01
-7.558939484159556133e-02
-2.734032375350095023e-01
-8.761326002786291867e-02
1.091075040122816142e-01
-8.870633868116840903e-02
-2.865201813745411608e-01
-9.307865329429329537e-02
1.091075040122816142e-01
-8.433402406803233720e-02
-2.832409454146582739e-01
-7.340323753495459069e-02
1.200382905452246768e-01
-8.542710272127687632e-02
-2.799617094547753315e-01
-6.903092292182715084e-02
1.265967624649905199e-01
-7.449631618828400637e-02
-2.690309229218322828e-01
-7.121708022846556796e-02
1.386206276512279012e-01
-6.137937234888443672e-02
-2.657516869619493405e-01
-6.903092292174482780e-02
1.255036838116962150e-01
-7.012400157518909605e-02
-2.712170802284208926e-01
-6.684476561520599769e-02
1.364344703446392915e-01
-5.919321504219625385e-02
-2.679378442685379502e-01
-7.231015888172732942e-02
1.298759984248734622e-01
-8.761326002779844246e-02
-2.832409454146582739e-01
-6.903092292189418056e-02
1.298759984248734622e-01
-6.465860830875011511e-02
-2.646586083086550634e-01
-6.575168696187916328e-02
1.244106051584019101e-01
-6.903092292187754109e-02
-2.668447656152436731e-01
-7.340323753498909087e-02
1.244106051584019101e-01
-7.231015888171068995e-02
-2.744963161883038349e-01
-6.465860830868443154e-02
1.298759984248734622e-01
-7.668247349492907095e-02
-2.701240015751265600e-01
-4.826242850922866229e-02
1.812506951297058744e-01
-5.632361030749332559e-03
-1.837707879648763365e-01
2.606691991482538301e-02
2.380907851010098386e-01
5.776620086027930978e-02
-1.083483608875691478e-01
1.014893469920827851e-01
2.840000885393707541e-01
8.181393123271289702e-02
-1.291168553001609820e-01
4.355617836752567057e-02
2.118568974219464662e-01
-3.446203724193257125e-03
-2.089115969906453762e-01
-2.968009140324268796e-02
1.506444928374652825e-01
-7.012400157509619814e-02
-2.952648106008956552e-01
-9.854404656074286506e-02
9.708363882604423289e-02
-9.854404656088028291e-02
-2.876132600278354934e-01
-9.526481060081878893e-02
9.599056017274992803e-02
-4.826242850929238215e-02
-1.061622035809805242e-01
2.195418415478918583e-01
6.009928979947197769e-01
7.474988310890128274e-01
7.366014381089300844e-01
6.217947859601470340e-01
4.337518640406907711e-01
-3.733164197624973951e-02
-4.384581141824498429e-01
-4.537946088813188950e-01
-2.701907886808429526e-01
-3.597898446982024101e-01
-4.209688557297409650e-01
-1.357087207727253886e-01
9.271132421286699954e-02
-9.635788925422464346e-02
-2.919855746410127129e-01
-7.886863080147121785e-02
1.309690770781677394e-01
-7.231015888170010120e-02
-2.679378442685379502e-01
-6.137937234881208487e-02
1.429929422644051207e-01
-3.733164197632344444e-02
-2.373316419762973584e-01
-2.312161948347018006e-02
1.845299310895887890e-01
-3.446203724241084319e-03
-2.121908329505283186e-01
-1.328391160378025390e-02
2.031122681955919995e-01
2.019189542280237868e-03
-1.881431025780535560e-01
3.590462779441377233e-02
2.555800435537187720e-01
5.558004355366012034e-02
-1.367684058732211438e-01
7.853469527293291397e-02
2.916516391124308605e-01
9.821011103218788008e-02
-7.336984398215132264e-02
1.539571223501902952e-01
3.812840886825640263e-01
1.889356392555742170e-01
2.172799885445339529e-02
2.446826505736589552e-01
4.807542461323460192e-01
3.157327630377635974e-01
1.441528080234157905e-01
3.725728530091340640e-01
6.184821564474286548e-01
4.501814373929222124e-01
2.687637744989667676e-01
4.851599542983978663e-01
7.103007633241504859e-01
5.092076846708646354e-01
3.103007633241504082e-01
4.829737969917594631e-01
6.523675946995521890e-01
4.086444485677471761e-01
1.594559091695360586e-01
3.102673697713910772e-01
4.403103359604566558e-01
1.878425606023469419e-01
-6.681137206238546566e-02
7.853469527294820729e-02
2.402769424075984483e-01
1.294997607530759196e-02
-2.143769902571169284e-01
-4.716934985594688906e-02
1.364344703446392915e-01
-7.777555214825200569e-02
-2.897994173344241031e-01
-9.198557464106327242e-02
8.068745902662963210e-02
-1.302433275063289431e-01
-3.280571701997248568e-01
-1.258710128930546901e-01
7.084975114698086052e-02
-1.302433275062791773e-01
-3.313364061596077992e-01
-1.411741140392247795e-01
6.319820057392072643e-02
-1.324294848129998758e-01
-3.204056196266646950e-01
-1.225917769332713347e-01
8.068745902662963210e-02
-1.236848555865956434e-01
-3.236848555865476373e-01
-1.204056196267325046e-01
8.396669498651254671e-02
-1.204056196266629492e-01
-3.269640915464305797e-01
-1.324294848128377555e-01
6.866359384039225078e-02
-1.389879567327982901e-01
-3.521049005721996195e-01
-1.433602713458306255e-01
4.789509942780040275e-02
-1.531979792255744877e-01
-3.542910578787882292e-01
-1.488256646123519433e-01
5.226741404097764998e-02
-1.575702938387019136e-01
-3.619426084518483355e-01
-1.706872376782878897e-01
2.494044770861997273e-02
-1.816180242111268828e-01
-3.870834174776174308e-01
-1.936418893973362032e-01
1.728889713555981089e-02
-1.838041815178476091e-01
-3.870834174776174308e-01
-1.914557320907973592e-01
8.544267909205371936e-03
-1.903626534375636448e-01
-3.881764961309117634e-01
-1.881764961309642381e-01
3.078874642733819833e-03
-2.056657545836341749e-01
-3.980142040105605350e-01
-1.980142040104808931e-01
8.927173361452100941e-04
-2.034795972769957717e-01
-4.002003613171490892e-01
-2.034795972770022110e-01
4.171953296028124702e-03
-1.947349680507734493e-01
-3.914557320907946503e-01
-1.881764961309317086e-01
1.400966117567689628e-02
-1.881764961309577988e-01
-3.925488107440889829e-01
-1.838041815176223726e-01
2.056813309544275326e-02
-1.783387882512592337e-01
-3.706872376782028300e-01
-1.466395073056657172e-01
8.943208825298408493e-02
-9.417173194754782650e-02
-2.668447656152436731e-01
-4.389011389605064484e-02
1.462721782242880630e-01
-3.295932736319873851e-02
-1.881431025780535560e-01
2.278768395503419711e-02
2.063915041554749419e-01
7.484582808740403680e-03
-2.056323610307624616e-01
-2.749393409655371406e-02
1.495514141841709777e-01
-6.684476561522269267e-02
-2.887063386811298260e-01
-1.018232825206163844e-01
7.959438037333531335e-02
-1.411741140391857829e-01
-3.630356871051426682e-01
-1.827111028644448909e-01
2.384736905532566786e-02
-1.728733949848527962e-01
-3.717803163314971071e-01
-1.706872376780753930e-01
8.544267909205371936e-03
-1.685010803716257832e-01
-2.602862936954778439e-01
8.072085257956543303e-02
4.239141561610419995e-01
5.124869206307772762e-01
6.502482244986800275e-01
7.551503816621031318e-01
5.671074597425962427e-01
-5.632361030674457557e-03
-4.526681366752758340e-01
-4.756561819473363872e-01
-3.784055753569793290e-01
-4.833077325204187535e-01
-5.412075075921147782e-01
-2.089449905433934107e-01
3.915047020144596379e-02
-1.510118219188996136e-01
-3.411741140392565708e-01
-1.236848555864872301e-01
8.287361633321824184e-02
-1.127540690535490803e-01
-2.996371252140728747e-01
-9.745096790747363735e-02
1.058282680523986857e-01
-8.433402406802920082e-02
-2.679378442685379502e-01
-6.356552965539992439e-02
1.375275489979335963e-01
-6.575168696197621065e-02
-2.548209004290062918e-01
-4.716934985585320012e-02
1.615752793704083312e-01
-3.951779928286305171e-02
-2.253077767900599770e-01
-1.437699025707377815e-02
1.965537962758261703e-01
9.261108888941965928e-04
-1.870500239247592511e-01
2.715999856806010013e-02
2.380907851010098386e-01
3.918386375424472851e-02
-1.476991924061641925e-01
7.525545931295982149e-02
2.894654818058422507e-01
1.200716840980732281e-01
-5.478750687614808434e-02
1.703533021496966282e-01
4.086110550149217313e-01
2.392172573070205921e-01
6.982345959940289282e-02
3.037088978515523063e-01
5.419666507168272584e-01
3.692936170490929149e-01
1.933413474216595929e-01
4.261337070204648803e-01
6.414368081666090848e-01
4.600191452725702068e-01
2.600191452726123287e-01
4.436229654731240757e-01
6.053652126078969964e-01
3.703866957024867790e-01
1.222912349575296376e-01
2.676373022928726919e-01
4.042387404017445118e-01
1.594225156165534341e-01
-9.304525974144883804e-02
5.558004355372737904e-02
2.195084479950066281e-01
-4.539282377542840259e-03
-2.384247206295916910e-01
-6.465860830869618603e-02
1.222244478518132865e-01
-9.198557464103762626e-02
-3.018232825206614844e-01
-1.083817544403363614e-01
8.178053767992393697e-02
-1.225917769332284246e-01
-3.204056196266646950e-01
-1.204056196266235224e-01
7.412898710686377513e-02
-1.247779342399491509e-01
-3.083817544404273137e-01
-1.127540690536131540e-01
9.271132421286699954e-02
-1.051025184806018281e-01
-2.952648106008956552e-01
-1.029163611740141759e-01
1.069213467056929906e-01
-8.870633868113744769e-02
-2.952648106008956552e-01
-9.417173194752760657e-02
1.112936613188702240e-01
-9.417173194755919241e-02
-3.018232825206614844e-01
-1.040094398272261578e-01
9.817671747933853776e-02
-1.007302038674571520e-01
-3.018232825206614844e-01
-1.040094398272759513e-01
9.380440286616130441e-02
-1.040094398272902732e-01
-3.029163611739558171e-01
-9.963712521396661526e-02
1.036421107458100760e-01
-9.745096790747465043e-02
-2.908924959877183802e-01
-9.635788925413346639e-02
1.047351893991043809e-01
-9.854404656071916180e-02
-3.029163611739558171e-01
-1.051025184805377127e-01
9.489748151945562316e-02
-1.007302038672580058e-01
-3.072886757871330365e-01
-9.635788925405114336e-02
1.003628747859271475e-01
-1.061955971338616467e-01
-2.996371252140728747e-01
-1.018232825205724751e-01
9.380440286616130441e-02
-1.018232825206346337e-01
-2.908924959877183802e-01
-8.979941733438487339e-02
1.014559534392214663e-01
-9.089249598764176374e-02
-2.974509679074842650e-01
-9.745096790749481486e-02
1.091075040122816142e-01
-8.324094541471373232e-02
-2.799617094547753315e-01
-8.542710272112533088e-02
1.134798186254588337e-01
-9.307865329431271040e-02
-2.952648106008956552e-01
-8.433402406788080563e-02
1.080144253589872955e-01
-9.854404656073445512e-02
-2.919855746410127129e-01
-8.652018137451920887e-02
1.102005826655759191e-01
-9.198557464110074244e-02
-2.821478667613639413e-01
-7.121708022844870645e-02
1.517375714907595874e-01
-1.547006891044945369e-02
-1.968877318044080227e-01
7.484582808873519420e-03
2.260669199147724573e-01
5.339388624714167669e-02
-1.105345181941577576e-01
8.946548180589675159e-02
2.785346952728992020e-01
6.432467277995264354e-02
-1.575369002858129641e-01
3.153231318124870286e-02
2.162292120351236857e-01
-1.547006891048199190e-02
-2.395177992828859681e-01
-5.700705773563995160e-02
1.320621557314620720e-01
-9.307865329432800372e-02
-3.105679117470159234e-01
-1.193125409734652337e-01
8.724593094639547519e-02
-1.007302038675202682e-01
-3.018232825206614844e-01
-1.116609904002729831e-01
8.943208825298408493e-02
-6.247245100216973490e-02
-1.181860687672179056e-01
2.140764482813806990e-01
6.086444485677799943e-01
7.606157749284933045e-01
7.606491684814049581e-01
6.731694826649399221e-01
4.796611674790516866e-01
-1.656314756370926358e-02
-4.318996422626840137e-01
-4.384915077354201718e-01
-2.494222942682510769e-01
-3.444867435521334897e-01
-3.947349680506775926e-01
-1.204056196266446860e-01
1.102005826655759191e-01
-8.433402406803860996e-02
-2.734032375350095023e-01
-7.231015888174496808e-02
1.440860209176994255e-01
-4.498319254939378564e-02
-2.449831925493575202e-01
-4.389011389614277253e-02
1.714129872500571028e-01
-2.858701274992938787e-02
-2.329593273631201389e-01
-2.421469813671313018e-02
1.757853018632343223e-01
-2.530777679017857940e-02
-2.242146981367656999e-01
-1.656314756370276878e-02
1.987399535824147800e-01
9.670740115289030644e-03
-1.837707879648763365e-01
2.169460530154818795e-02
2.195084479950066281e-01
3.153231318122495797e-02
-1.586299789391072690e-01
4.574233567415506019e-02
2.544869649004244394e-01
6.979006604657549129e-02
-1.203722260738065153e-01
1.014893469921149260e-01
3.299093919777316142e-01
1.605155942700527694e-01
-9.971282091081501431e-03
2.184487628945560034e-01
4.534272797999883142e-01
2.938711899718260967e-01
1.299427855305897994e-01
3.813174822355398508e-01
6.108306058743685485e-01
4.447160441264902397e-01
2.698568531522611003e-01
4.928115048715093760e-01
7.004630554445017143e-01
5.135799992840813788e-01
3.092076846708561866e-01
4.807876396852222012e-01
6.479952800863749696e-01
4.217613924074093967e-01
1.561766732096531718e-01
2.938711899720278242e-01
4.435895719203395426e-01
1.823771673358240419e-01
-7.336984398215132264e-02
7.634853796641093149e-02
2.468354143273642776e-01
1.513613338184485041e-02
-2.078185183373510714e-01
-3.077317005648093351e-02
1.528306501440538923e-01
-6.465860830858978503e-02
-2.832409454146582739e-01
-8.652018137454038638e-02
1.167590545853417622e-01
-8.870633868119663645e-02
-2.985440465607785421e-01
-9.526481060076272267e-02
9.708363882604423289e-02
-1.040094398272671528e-01
-3.051025184805443713e-01
-1.029163611738726503e-01
9.380440286616130441e-02
-9.963712521404013978e-02
-3.040094398272500942e-01
-9.635788925415660067e-02
1.047351893991043809e-01
-1.018232825207608661e-01
-2.919855746410127129e-01
-8.652018137455763647e-02
1.102005826655759191e-01
-1.061955971338883059e-01
-3.051025184805443713e-01
-1.029163611740220169e-01
9.161824555957269467e-02
-1.061955971338385263e-01
-3.116609904003102560e-01
-1.149402263601272817e-01
8.833900959968978006e-02
-1.116609904004421533e-01
-3.236848555865476373e-01
-1.269640915464144426e-01
6.538435788050933617e-02
-1.378948780794557460e-01
-3.378948780793736284e-01
-1.346156421195243702e-01
5.991896461403778407e-02
-1.455464286524661144e-01
-3.564772151853768389e-01
-1.510118219189887645e-01
4.461586346791748814e-02
-1.521049005721821779e-01
-3.564772151853768389e-01
-1.597564511452111147e-01
3.368507693497441169e-02
-1.663149230651402855e-01
-3.630356871051426682e-01
-1.663149230650267651e-01
2.275429040203136299e-02
-1.761526309447392358e-01
-3.903626534375003176e-01
-1.870834174776683789e-01
1.400966117567689628e-02
-1.892695747842211285e-01
-3.936418893973832600e-01
-2.023865186238384406e-01
3.078874642733819833e-03
-2.100380691969450930e-01
-4.045726759303263087e-01
-2.111311478500608185e-01
-1.659654111656369557e-02
-2.012934399705408328e-01
-3.652218444117312779e-01
-1.477325859590407631e-01
6.647743653380364104e-02
-1.193125409734180215e-01
-3.127540690536045331e-01
-9.417173194766952082e-02
1.364344703446392915e-01
-4.716934985594397473e-02
-2.635655296553607307e-01
-7.668247349482849862e-02
1.189452118919303719e-01
-8.979941733437216134e-02
-3.171263836667818081e-01
-1.346156421194765473e-01
4.898817808109473537e-02
-1.619426084519285380e-01
-3.805249455578516016e-01
-1.958280467040075523e-01
-1.768961976985800044e-02
-2.373650355291859471e-01
-4.329927209159782908e-01
-2.286204063027046374e-01
-3.736503552915554360e-02
-2.428304287956076779e-01
-4.395511928357441755e-01
-2.187826984231056593e-01
6.429127922721503130e-02
2.934615587472454851e-02
-3.729824842343917868e-02
4.184821564474255351e-01
9.846635053010215355e-01
7.595226962751895350e-01
1.802244035821279344e-01
-1.000467564381069506e-02
-4.938890071539289717e-02
-4.636323167610902352e-01
-8.101048563025141647e-01
-5.379616651850107623e-01
-2.046060694831844939e-01
-2.767158670477139482e-01
-3.991072826638548121e-01
-1.859903388242936939e-01
2.494044770861997273e-02
-1.542910578787017872e-01
-3.466395073057280674e-01
-1.346156421193291375e-01
7.194282980027516539e-02
-1.149402263602388452e-01
-3.061955971338387039e-01
-1.007302038672554245e-01
1.036421107458100760e-01
-9.307865329430291268e-02
-2.865201813745411608e-01
-7.996170945471338387e-02
1.200382905452246768e-01
-7.558939484154421351e-02
-2.646586083086550634e-01
-5.591397908228841473e-02
1.517375714907595874e-01
-4.061087793607660867e-02
-2.417039565894746056e-01
-2.858701274998052405e-02
1.714129872500571028e-01
-7.818518337379504538e-03
-1.979808104577023276e-01
-1.260046417490736335e-03
2.195084479950066281e-01
4.683541432738563132e-02
-1.334891699133382015e-01
8.400008853941541564e-02
3.058616616052568515e-01
1.255370773646255211e-01
-4.167056303661642591e-02
1.867494819490304880e-01
4.326587853873964939e-01
2.731026955592248950e-01
1.124535270778808660e-01
3.397804934101837371e-01
5.747590103156563490e-01
4.031790553012971623e-01
2.315991002869603466e-01
4.272267856738603542e-01
6.228544710606058743e-01
4.108306058744071176e-01
1.867828755018937636e-01
3.397804934102660601e-01
5.004296618916435069e-01
2.435895719202460230e-01
-2.090206862402457788e-02
1.288163133244149550e-01
2.840000885393707541e-01
3.590462779437748886e-02
-2.209354621768827576e-01
-3.951779928295808680e-02
1.276898411182848248e-01
-8.870633868112372256e-02
-3.149402263601931429e-01
-1.269640915463705610e-01
6.757051518709794591e-02
-1.400810353860882651e-01
-3.488256646123166771e-01
-1.630356871051324430e-01
3.805739154815165892e-02
-1.619426084519246245e-01
-3.597564511452597813e-01
-1.608495297985936268e-01
3.259199828168010682e-02
-1.630356871051691359e-01
-3.630356871051426682e-01
-1.597564511453491154e-01
5.445357134756625972e-02
-1.564772151855354232e-01
-3.455464286524337902e-01
-1.466395073056853127e-01
6.538435788050933617e-02
-1.378948780794824192e-01
-3.302433275063134666e-01
-1.258710128931432859e-01
6.866359384039225078e-02
-1.400810353860212354e-01
-3.389879567326679055e-01
-1.378948780794304607e-01
5.445357134756625972e-02
-1.411741140392657468e-01
-3.400810353859622381e-01
-1.422671926924755637e-01
5.554665000086056459e-02
-1.280571701996842948e-01
-3.313364061596077992e-01
-1.247779342398164237e-01
6.866359384039225078e-02
-1.225917769333448593e-01
-3.302433275063134666e-01
-1.171263836668060554e-01
8.833900959968978006e-02
-1.149402263602349178e-01
-3.116609904003102560e-01
-1.051025184804365714e-01
8.068745902662963210e-02
-1.204056196266566764e-01
-3.204056196266646950e-01
-1.094748330936635844e-01
8.615285229310115644e-02
-1.149402263601353447e-01
-3.160333050134874755e-01
-1.214986982799507592e-01
7.850130172004100848e-02
-1.127540690536788376e-01
-3.204056196266646950e-01
-1.171263836666414093e-01
8.505977363980685158e-02
-1.149402263602176677e-01
-3.225917769332533047e-01
-1.138471477068082882e-01
9.161824555957269467e-02
-1.149402263601678881e-01
-3.193125409733703624e-01
-1.127540690535637491e-01
9.489748151945562316e-02
-1.138471477068237897e-01
-3.083817544404273137e-01
-9.635788925401704563e-02
1.244106051584019101e-01
-4.716934985600317043e-02
-2.362385633230030535e-01
-1.328391160369949558e-02
2.085776614620635516e-01
2.169460530158795475e-02
-1.662815295121674031e-01
5.776620086038067314e-02
2.850931671926650313e-01
7.088314469988155064e-02
-1.444199564462812779e-01
4.902157163397643375e-02
2.348115491411269240e-01
-1.260046417492919268e-03
-2.274939340966486145e-01
-3.733164197632361098e-02
1.451790995709937304e-01
-7.777555214822652607e-02
-2.876132600278354934e-01
-1.127540690534986761e-01
7.850130172004100848e-02
-1.236848555865376342e-01
-3.149402263601931429e-01
-1.160333050134313981e-01
8.068745902662963210e-02
-1.182194623200163025e-01
-2.908924959877183802e-01
2.606691991477873629e-02
3.758186954160925297e-01
3.190119989975743753e-01
4.185155500002868956e-01
9.409737527220638498e-01
9.562434603153695534e-01
3.758520889689281330e-01
-1.662815295121674031e-01
-1.816180242112391818e-01
-2.046060694831844939e-01
-4.876800471335245857e-01
-5.729067885376496472e-01
-2.187826984232953964e-01
6.975667249368655565e-02
-8.324094541476312337e-02
-2.679378442685379502e-01
-5.919321504201256745e-02
1.320621557314620720e-01
-4.716934985600121366e-02
-2.427970352427689105e-01
-4.170395658935344141e-02
1.615752793704083312e-01
-3.514548466971405272e-02
-2.351454846697087486e-01
-3.405240601634308001e-02
1.725060659033514077e-01
-2.640085544330980638e-02
-2.318662487098258340e-01
-3.842472062957009299e-02
1.659475939835855784e-01
-2.202854083008279340e-02
-2.121908329505283186e-01
9.261108889751750025e-04
2.052984255021806370e-01
9.670740115319998928e-03
-1.892361812313478608e-01
2.388076260810583287e-02
2.391838637543041435e-01
6.104543682002031707e-02
-1.247445406869837486e-01
8.509316719253724737e-02
3.146062908316113460e-01
1.288163133243171166e-01
-4.822903495638225513e-02
1.747256167628025436e-01
4.173556842412762258e-01
2.468688078801520858e-01
7.528885286587444492e-02
3.201050776510774853e-01
5.561766732096531385e-01
3.966205833815219517e-01
2.326921789402546237e-01
4.720430104589363740e-01
6.949976621780301622e-01
5.113938419774739508e-01
3.124869206307390734e-01
5.146730779373644982e-01
6.971838194846187164e-01
4.643914598858685516e-01
2.239475497139001847e-01
3.605489878228174683e-01
5.135466057311752763e-01
2.490549651869398418e-01
-6.692046131198586822e-03
1.430263358172005894e-01
2.960239537256080800e-01
5.230080759365057091e-02
-1.793984733516990893e-01
-8.911596990575972738e-03
1.637614366769969687e-01
-7.121708022855634257e-02
-2.810547881080696642e-01
-9.089249598769878757e-02
1.047351893991043809e-01
-1.083817544405129840e-01
-3.193125409733703624e-01
-1.346156421195208452e-01
6.210512192062639381e-02
-1.444533499991753345e-01
-3.466395073057280674e-01
-1.269640915465105047e-01
8.287361633321824184e-02
-1.138471477068849491e-01
-3.193125409733703624e-01
-1.138471477068467019e-01
7.959438037333531335e-02
-1.171263836667180841e-01
-3.127540690536045331e-01
-1.029163611739534051e-01
8.943208825298408493e-02
-1.160333050133739857e-01
-3.127540690536045331e-01
-1.160333050133529886e-01
7.631514441345239874e-02
-1.313364061596263843e-01
-3.357087207727850187e-01
-1.433602713457604594e-01
5.336049269427195485e-02
-1.499187432657617114e-01
-3.499187432656110097e-01
-1.564772151853419113e-01
4.570894212121179301e-02
-1.499187432657119179e-01
-3.608495297985540584e-01
-1.608495297985689243e-01
4.570894212121179301e-02
-1.521049005722507896e-01
-3.597564511452597813e-01
-1.510118219189699462e-01
3.368507693497441169e-02
-1.630356871051440448e-01
-3.619426084518483355e-01
-1.619426084519628162e-01
3.259199828168010682e-02
-1.674080017182714986e-01
-3.619426084518483355e-01
-1.739664736378861709e-01
2.384736905532566786e-02
-1.728733949848751394e-01
-3.761526309446743266e-01
-1.761526309445245742e-01
2.712660501520858247e-02
-1.805249455578855078e-01
-3.794318669045572689e-01
-1.772457095978686725e-01
3.149891962838580195e-02
-1.717803163314812476e-01
-3.739664736380857724e-01
-1.685010803715640271e-01
2.931276232179719221e-02
-1.521049005721339664e-01
-3.608495297985540584e-01
-1.521049005721991920e-01
5.663972865415486946e-02
-1.094748330937880820e-01
-2.876132600278354934e-01
-6.684476561529302530e-02
1.528306501440538923e-01
-3.951779928290264504e-02
-2.231216194834713673e-01
3.112268195492833359e-03
2.271599985680667622e-01
2.278768395474074088e-02
-1.837707879648763365e-01
-1.260046417734181790e-03
1.943676389692375606e-01
-4.170395658957358476e-02
-2.526347431224176820e-01
-6.356552965519567111e-02
1.189452118919303719e-01
-1.072886757871822222e-01
-3.138471477068988658e-01
-1.400810353858469581e-01
3.805739154815165892e-02
-1.674080017183193214e-01
-3.630356871051426682e-01
-1.619426084517828768e-01
3.587123424156304918e-02
-1.630356871050923084e-01
-3.477325859590223445e-01
-6.793784426852225722e-02
2.905585604591365834e-01
2.195418415479649388e-01
2.840668756450870913e-01
8.393174379657027950e-01
1.041503595272325500e+00
4.578329879659917556e-01
-1.444199564462812779e-01
-1.925488107441728214e-01
-2.067922267897731037e-01
-5.740332607439662116e-01
-7.051693055862606752e-01
-3.586967660447754058e-01
-3.299272091597829637e-02
-1.641287657585512594e-01
-3.389879567326679055e-01
-1.357087207727865341e-01
7.194282980027516539e-02
-1.116609904003747350e-01
-2.996371252140728747e-01
-1.007302038674185024e-01
1.178521332386360670e-01
-8.761326002785019273e-02
-2.755893948415981121e-01
-7.231015888163441763e-02
1.408067849578165109e-01
-4.607627120261674480e-02
-2.395177992828859681e-01
-3.295932736308914562e-02
1.714129872500571028e-01
-2.202854083009220254e-02
-2.078185183373510714e-01
9.261108889845842511e-04
2.140430547285350760e-01
2.497384126161278708e-02
-1.630022935522844885e-01
3.918386375441744451e-02
2.501146502872472199e-01
5.339388624695075997e-02
-1.389545631798097536e-01
8.509316719272855267e-02
3.167924481381999557e-01
1.397470998572507839e-01
-4.932211360967656000e-02
1.703533021496347055e-01
4.020525830951559021e-01
2.435895719202597343e-01
7.310269555928583518e-02
3.113604484245505732e-01
5.463389653300043669e-01
3.736659316623320293e-01
2.075513699144855839e-01
4.392506508599346993e-01
6.458091227797864153e-01
4.589260666193377691e-01
2.786014823786155392e-01
4.709499318056016848e-01
6.578329879660237411e-01
4.315991002870299131e-01
1.889690328084823734e-01
3.375943361038283852e-01
4.862196393988175158e-01
2.195418415479841456e-01
-1.871591131743596814e-02
1.200716840982114370e-01
2.785346952728992020e-01
3.481154914111415227e-02
-2.034462037241738519e-01
-2.421469813668686299e-02
1.561098861039368069e-01
-7.449631618844866632e-02
-2.854271027212468836e-01
-9.198557464098369718e-02
9.817671747933853776e-02
-1.040094398273451598e-01
-3.018232825206614844e-01
-9.089249598773915806e-02
1.102005826655759191e-01
-7.558939484164339806e-02
-2.679378442685379502e-01
-7.121708022849143616e-02
1.309690770781677394e-01
-5.154166446911885580e-02
-2.482624285092404348e-01
-4.061087793630061699e-02
1.670406726368798833e-01
-2.530777679000570032e-02
-2.154700689104112332e-01
-1.669677640972457781e-04
1.965537962758261703e-01
-1.219083295060612894e-02
-2.132839116038226235e-01
-6.725439683912874840e-03
1.867160883961773987e-01
-8.911596990673420829e-03
-2.121908329505283186e-01
-2.640085544326018635e-02
1.637614366769969687e-01
-3.733164197627562159e-02
-2.373316419762973584e-01
-4.170395658943027578e-02
1.528306501440538923e-01
-4.716934985587459273e-02
-2.515416644691233494e-01
-6.247245100207189650e-02
1.386206276512279012e-01
-6.137937234883269338e-02
-2.723101588817151697e-01
-7.121708022847614283e-02
1.265967624649905199e-01
-7.121708022843167840e-02
-2.799617094547753315e-01
-7.886863080158607042e-02
1.233175265051076053e-01
-8.761326002797839574e-02
-2.854271027212468836e-01
-7.668247349486534414e-02
1.309690770781677394e-01
-6.793784426863107295e-02
-2.712170802284208926e-01
-8.105478810791046096e-02
1.255036838116962150e-01
-6.793784426858129333e-02
-2.777755521481867218e-01
-8.542710272113748782e-02
1.058282680523986857e-01
-1.018232825206550202e-01
-3.029163611739558171e-01
-9.963712521401325850e-02
8.943208825298408493e-02
-1.204056196266084511e-01
-3.160333050134874755e-01
-1.072886757871232000e-01
7.412898710686377513e-02
-1.302433275062074292e-01
-3.236848555865476373e-01
-1.072886757871729796e-01
1.222244478518132865e-01
-5.372782177591994834e-02
-2.449831925493575202e-01
-3.514548466961660289e-02
1.779714591698229598e-01
-7.818518337509265323e-03
-1.870500239247592511e-01
2.497384126152049633e-02
2.096707401153578565e-01
-7.818518337459478759e-03
-2.296800914032372243e-01
-4.826242850924786221e-02
1.440860209176994255e-01
-8.214786676142256383e-02
-2.952648106008956552e-01
-1.324294848129592972e-01
5.336049269427195485e-02
-1.772457095979774744e-01
-3.980142040105605350e-01
-2.078519118901343554e-01
-1.331730515668078096e-02
-2.100380691967569380e-01
-4.002003613171490892e-01
-2.056657545835955392e-01
-4.572675930326314253e-03
-1.510118219188145428e-01
-1.968877318044080227e-01
1.659809875366009546e-01
5.561766732096531385e-01
7.190787861035036199e-01
7.573699325215219602e-01
6.644248534387552363e-01
4.687303809461086379e-01
-4.826242850941391688e-02
-4.548542939818644437e-01
-4.439569010017219708e-01
-2.461430583083681900e-01
-3.149736199131750181e-01
-3.455464286524337902e-01
-4.279703524276103760e-02
1.954607176225318654e-01
3.043923452787576298e-02
-1.542576643259300218e-01
5.448696490038249657e-02
2.686969873932504305e-01
8.181393123275798596e-02
-1.159999114606292958e-01
8.618624584586762061e-02
3.047685829519625744e-01
1.080478189118711380e-01
-9.413833839474315679e-02
1.080478189120677723e-01
3.135132121783170134e-01
1.058616616053323078e-01
-1.006968103145089860e-01
1.080478189120179788e-01
3.135132121783170134e-01
1.080478189117888149e-01
-8.648678782168299495e-02
1.244439987113828000e-01
3.244439987112600621e-01
1.266301560178418051e-01
-7.336984398215132264e-02
1.320955492843931822e-01
3.353747852442031663e-01
1.452124931238948369e-01
-4.932211360967656000e-02
1.616086729232896757e-01
3.747256167627982526e-01
1.944010325220065227e-01
8.611055014921709105e-03
2.315657067340755326e-01
4.545203584532826468e-01
2.785680888257179300e-01
1.080812124647036465e-01
3.430597293700450301e-01
5.649213024360075774e-01
3.933413474216699846e-01
2.250406283671945173e-01
4.392506508598942871e-01
6.458091227797864153e-01
4.458091227796646128e-01
2.447160441264920050e-01
4.152029204877335511e-01
5.867828755018937859e-01
3.266635495706349257e-01
7.966116747905166440e-02
2.009595044419995591e-01
3.517709650436177671e-01
9.602395372558593378e-02
-1.608161362456958787e-01
-1.219083295044007600e-02
1.484583355308766728e-01
-8.652018137451356061e-02
-3.094748330937216463e-01
-1.214986982799205750e-01
5.008125673438904024e-02
-1.641287657583595516e-01
-3.641287657584370008e-01
-1.783387882512743050e-01
2.056813309544275326e-02
-1.805249455579062967e-01
-3.870834174776174308e-01
-1.925488107441500896e-01
9.637346562499676805e-03
-1.848972601712156327e-01
-3.958280467039718697e-01
-1.892695747841350584e-01
2.275429040203136299e-02
-1.575702938388081620e-01
-3.499187432656110097e-01
-1.422671926925296593e-01
7.084975114698086052e-02
-1.313364061596949961e-01
-3.291502488530191339e-01
-1.258710128931648520e-01
8.178053767992393697e-02
-1.149402263602306157e-01
-3.116609904003102560e-01
-1.149402263600896451e-01
8.396669498651254671e-02
-1.083817544404149791e-01
-3.051025184805443713e-01
-1.171263836667280483e-01
8.287361633321824184e-02
-1.193125409733082620e-01
-3.258710128931362471e-01
-1.193125409733664377e-01
8.287361633321824184e-02
-1.171263836666698588e-01
-3.247779342398419145e-01
-1.105679117470617784e-01
9.052516690627838980e-02
-1.182194623202781764e-01
-3.127540690536045331e-01
-1.007302038672809041e-01
9.708363882604423289e-02
-1.127540690537568585e-01
-3.149402263601931429e-01
-1.127540690535680651e-01
7.959438037333531335e-02
-1.127540690537070650e-01
-3.083817544404273137e-01
-1.127540690536178447e-01
7.194282980027516539e-02
-1.236848555866003618e-01
-3.280571701997248568e-01
-1.236848555866107147e-01
8.396669498651254671e-02
-1.247779342398448732e-01
-3.269640915464305797e-01
-1.105679117469469119e-01
8.615285229310115644e-02
-1.160333050134406269e-01
-3.105679117470159234e-01
-1.018232825206422526e-01
9.052516690627838980e-02
-9.526481060079901309e-02
-2.843340240679525510e-01
-5.044858581567770311e-02
1.779714591698229598e-01
9.670740115322349478e-03
-1.706538441253446503e-01
3.918386375440568309e-02
2.610454368201902686e-01
8.727932449926793790e-02
-8.539370916838869008e-02
1.178855267915459998e-01
3.014893469920796321e-01
8.400008853925289287e-02
-1.378614845265154210e-01
4.246309971418903151e-02
2.304392345279496768e-01
8.577661461995502931e-03
-2.165631475637055381e-01
-2.093546217693056585e-02
1.604822007171140541e-01
-6.247245100208466406e-02
-2.832409454146582739e-01
-8.761326002793308476e-02
1.014559534392214663e-01
-9.198557464098117142e-02
-2.996371252140728747e-01
-9.526481060067922002e-02
1.036421107458100760e-01
-1.547006891051178924e-02
-6.353213610250255106e-02
2.687303809462752713e-01
7.157661565906219270e-01
8.578997750716893522e-01
7.016229212035123286e-01
5.201384712039159863e-01
2.960239537256080800e-01
-2.264342489962134775e-01
-6.953315977066120146e-01
-5.980809911162098258e-01
-2.723769459874315624e-01
-3.106013052998253254e-01
-3.936418893973832600e-01
-1.422671926925335728e-01
6.975667249368655565e-02
-1.214986982800423249e-01
-3.040094398272500942e-01
-8.979941733445660768e-02
1.255036838116962150e-01
-6.247245100209995738e-02
-2.624724510020664536e-01
-6.247245100214873087e-02
1.517375714907595874e-01
-3.733164197646300642e-02
-2.351454846697087486e-01
-2.421469813689777068e-02
1.921814816626489508e-01
-1.260046417701085868e-03
-1.914223385379364706e-01
1.841536934171231557e-02
2.457423356740700005e-01
4.574233567400390332e-02
-1.476991924061641925e-01
6.432467278020533030e-02
2.676039087399560978e-01
8.400008853935443665e-02
-1.094414395408634527e-01
1.146062908316936579e-01
3.233509200579657850e-01
1.342817065909423513e-01
-4.713595630308795026e-02
1.648879088831819995e-01
4.009595044418615695e-01
2.239141561611253106e-01
6.326498767963706360e-02
2.763819315191515247e-01
5.168258416910580522e-01
3.441528080231850972e-01
1.725728530090677726e-01
4.217613924072445841e-01
6.622053025792009606e-01
4.818807183383175818e-01
3.081146060175618540e-01
5.332554150433959084e-01
7.616754600289827870e-01
5.638616173354403793e-01
3.420000442696853882e-01
5.288831004301689509e-01
6.993699767912073817e-01
4.687637744988853994e-01
2.239475497139001847e-01
3.638282237826788168e-01
5.211981563042353827e-01
2.774750101724314799e-01
3.047262808080786201e-02
1.878425606024275163e-01
3.495848077370291573e-01
1.036755042986864522e-01
-1.203722260738065153e-01
4.246309971423489760e-02
2.173222906884180183e-01
-1.000467564387168447e-02
-2.307731700565315291e-01
-4.935550716253667841e-02
1.255036838116962150e-01
-8.105478810795185840e-02
-2.908924959877183802e-01
-1.160333050133572907e-01
7.740822306674670361e-02
-1.291502488530334725e-01
-3.324294848129020763e-01
-1.378948780792932371e-01
6.101204326733208894e-02
-1.182194623202225126e-01
-3.236848555865476373e-01
-1.335225634661657834e-01
7.740822306674670361e-02
-1.258710128932328809e-01
-3.291502488530191339e-01
-1.214986982799781956e-01
7.412898710686377513e-02
-1.346156421195375263e-01
-3.269640915464305797e-01
-1.302433275063824281e-01
6.538435788050933617e-02
-1.389879567326650078e-01
-3.521049005721996195e-01
-1.488256646122535221e-01
5.554665000086056459e-02
-1.433602713457924338e-01
-3.531979792254938966e-01
-1.477325859588271284e-01
7.303590845356947026e-02
-1.193125409734497738e-01
-3.258710128931362471e-01
-1.094748330935761682e-01
9.926979613263284263e-02
-1.007302038673967837e-01
-3.040094398272500942e-01
-8.652018137444550394e-02
1.080144253589872955e-01
-8.761326002781530398e-02
-2.887063386811298260e-01
-8.761326002778960231e-02
1.102005826655759191e-01
-1.007302038674791067e-01
-2.952648106008956552e-01
-9.963712521407676326e-02
9.489748151945562316e-02
-1.072886757871951702e-01
-3.182194623200760852e-01
-1.302433275063671347e-01
6.866359384039225078e-02
-1.258710128931485872e-01
-3.269640915464305797e-01
-1.258710128932397088e-01
8.068745902662963210e-02
-1.182194623200386457e-01
-2.985440465607785421e-01
-6.465860830880830468e-02
1.572029647572311117e-01
-2.530777679015467144e-02
-2.121908329505283186e-01
9.261108891641329013e-04
2.020191895422976947e-01
4.683541432731937876e-02
-1.334891699133382015e-01
4.027694240770939710e-02
2.304392345279496768e-01
8.577661462068418563e-03
-2.264008554433543097e-01
-5.372782177565078865e-02
1.353413916913449588e-01
-8.324094541460358432e-02
-3.193125409733703624e-01
-1.346156421194792951e-01
5.663972865415486946e-02
-1.641287657585144000e-01
-3.816180242111458787e-01
-1.892695747842444431e-01
1.619581848226550602e-02
-1.816180242111735399e-01
-3.947349680506775926e-01
-1.870834174777055992e-01
7.850130172004100848e-02
2.388076260802406842e-02
-2.090206862402457788e-02
3.572697518629913693e-01
8.950310557308882586e-01
9.584630111747063363e-01
4.753556399715908598e-01
2.851265607455173434e-01
1.615752793704083312e-01
-2.985774401136969125e-01
-6.942385190533176820e-01
-4.395845863884760840e-01
-9.311204684716517521e-02
-1.389879567326783305e-01
-2.766824734948923892e-01
-4.279703524269243275e-02
1.714129872500571028e-01
-4.607627120261242881e-02
-2.460762712026518251e-01
-6.356552965533406041e-02
1.397137063045222061e-01
-5.482090042891710202e-02
-2.438901138960632153e-01
-3.951779928290908434e-02
1.593891220638197215e-01
-2.421469813662672013e-02
-2.176562262169998430e-01
-6.725439683947763599e-03
2.009261108890033898e-01
8.577661461888480901e-03
-1.968877318044080227e-01
1.404305472859428312e-02
2.348115491411269240e-01
3.153231318111871656e-02
-1.531645856726357446e-01
8.181393123279152857e-02
2.796277739261935347e-01
7.962777392611801452e-02
-9.304525974144883804e-02
1.189786054447481839e-01
3.222578414046715078e-01
1.353747852441774535e-01
-5.041519226297086487e-02
1.670740661898298118e-01
3.736325381095039200e-01
1.976802684820027356e-01
2.063492020115909042e-02
2.381241786539099736e-01
4.654511449862256955e-01
2.884057967054799998e-01
1.255704709174125799e-01
3.518043585966500464e-01
5.791313249288336795e-01
3.922482687684889502e-01
2.119236845276628034e-01
4.272267856739074277e-01
6.315991002869603133e-01
4.348783362468348623e-01
2.141098418342514131e-01
3.791313249289081089e-01
5.179189203443523848e-01
2.731026955591452920e-01
2.828647077421922451e-02
1.692602234963513641e-01
3.124201335250227363e-01
7.306930200633687811e-02
-1.619092148989901836e-01
-1.669677643159929990e-04
1.790645378231172646e-01
-4.716934985598709995e-02
-2.690309229218322828e-01
-8.433402406802741058e-02
1.134798186254588337e-01
-1.105679117470071277e-01
-3.138471477068988658e-01
-1.149402263603178098e-01
8.505977363980685158e-02
-1.204056196266061057e-01
-3.094748330937216463e-01
-1.018232825204721109e-01
9.161824555957269467e-02
-1.083817544405008410e-01
-3.040094398272500942e-01
-9.745096790734465719e-02
1.134798186254588337e-01
-8.324094541468197994e-02
-2.766824734948923892e-01
-1.007302038672773792e-01
9.708363882604423289e-02
-9.854404656075249624e-02
-2.985440465607785421e-01
-1.051025184805043783e-01
9.817671747933853776e-02
-1.138471477070049087e-01
-3.182194623200760852e-01
-1.061955971338484905e-01
9.161824555957269467e-02
-1.204056196267209722e-01
-3.247779342398419145e-01
-1.149402263602527369e-01
7.631514441345239874e-02
-1.214986982799654835e-01
-3.214986982799590276e-01
-1.072886757872423685e-01
9.599056017274992803e-02
-9.854404656091714232e-02
-3.007302038673671518e-01
-9.854404656075578528e-02
1.058282680523986857e-01
-7.777555214827552854e-02
-2.887063386811298260e-01
-8.542710272109201031e-02
1.298759984248734622e-01
-8.324094541469727326e-02
-2.821478667613639413e-01
-7.886863080137594684e-02
1.211313691985189817e-01
-8.761326002782471312e-02
-2.821478667613639413e-01
-7.996170945472004521e-02
1.102005826655759191e-01
-8.979941733436354323e-02
-2.843340240679525510e-01
-7.886863080147551996e-02
1.058282680523986857e-01
-8.324094541454790663e-02
-2.777755521481867218e-01
-8.105478810811392321e-02
1.386206276512279012e-01
-2.858701275014657525e-02
-2.143769902571169284e-01
8.577661462151366101e-03
2.162292120351236857e-01
2.715999856791286721e-02
-1.575369002858129641e-01
8.837240315258598766e-02
2.960239537256080800e-01
7.962777392608939853e-02
-1.280237766468666494e-01
6.213851547347284260e-02
2.282530772213610670e-01
2.019189542243381499e-03
-2.154700689104112332e-01
-3.405240601629407060e-02
1.408067849578165109e-01
-7.449631618830832025e-02
-2.908924959877183802e-01
-1.214986982798884202e-01
7.740822306674670361e-02
-1.247779342397966618e-01
-3.204056196266646950e-01
-1.280571701997040568e-01
8.068745902662963210e-02
-1.214986982798639537e-01
-2.887063386811298260e-01
3.809078510098083681e-02
3.736325381095039200e-01
3.113604484247314286e-01
4.043055275074607935e-01
8.764821121778464397e-01
8.425632803727616249e-01
2.894988753585312491e-01
-1.914223385379364706e-01
